"Time (s)","X (rad/s)","Y (rad/s)","Z (rad/s)"
1.671816665E-2,1.587714441E-2,4.907764867E-2,-5.927791074E-2
3.671916667E-2,-9.093813132E-4,2.884902060E-2,-5.226457492E-2
5.672016670E-2,-1.860894263E-2,3.588669933E-3,-4.482349753E-2
7.672116667E-2,-2.815561928E-2,-2.099991404E-2,-4.395679384E-2
9.672216669E-2,-4.254817218E-2,-2.174997702E-2,-4.380957410E-2
1.167231667E-1,-5.130143464E-2,3.568220884E-3,-3.785032406E-2
1.367241667E-1,-5.972980708E-2,4.276542366E-2,-2.589006908E-2
1.567241666E-1,-6.456677616E-2,6.208764389E-2,-1.909241267E-2
1.767251667E-1,-7.084821165E-2,5.590291321E-2,-1.480567548E-2
1.967261666E-1,-7.693372667E-2,2.889605984E-2,-1.419134252E-2
2.167271667E-1,-8.916889131E-2,3.581650788E-3,-9.217297658E-3
2.367281667E-1,-9.740288556E-2,1.515970100E-3,1.864862279E-4
2.567291667E-1,-9.921757877E-2,2.312162519E-2,2.156250924E-2
2.767301667E-1,-1.013054401E-1,4.482284933E-2,5.420060828E-2
2.967311667E-1,-1.062129065E-1,4.141990095E-2,8.493391424E-2
3.167321667E-1,-1.102675125E-1,4.451191984E-3,9.715978801E-2
3.367331667E-1,-1.189118475E-1,-2.828937024E-2,1.022003070E-1
3.567331667E-1,-1.230842471E-1,-2.860346995E-2,1.250107586E-1
3.767341667E-1,-1.221340671E-1,-2.926467452E-3,1.700441837E-1
3.967351667E-1,-1.394649148E-1,1.349064428E-2,2.059693635E-1
4.167361667E-1,-1.480138451E-1,1.596371457E-2,2.361614704E-1
4.367371667E-1,-1.570822150E-1,-6.676236633E-3,2.563523352E-1
4.567381667E-1,-1.504791975E-1,-3.845530003E-2,2.684620023E-1
4.767391667E-1,-1.455578804E-1,-6.496737152E-2,2.839180231E-1
4.967401667E-1,-1.406079680E-1,-6.059755012E-2,3.005104959E-1
5.167411666E-1,-1.475909054E-1,-3.662641346E-2,3.321996331E-1
5.367425833E-1,-1.789057553E-1,-2.625370584E-2,3.647015989E-1
5.567425833E-1,-2.250420600E-1,-4.103970900E-2,3.894256949E-1
5.767435833E-1,-2.907774448E-1,-7.164792717E-2,4.146211445E-1
5.967445833E-1,-3.457482755E-1,-6.701686233E-2,4.727289677E-1
6.167455834E-1,-3.918361366E-1,-6.156509370E-2,5.793489218E-1
6.367465833E-1,-4.261283278E-1,-1.128140911E-1,6.827647686E-1
6.567475834E-1,-4.648379087E-1,-2.184489965E-1,7.600156069E-1
6.767485833E-1,-5.081345439E-1,-3.225056529E-1,8.390319943E-1
6.967495834E-1,-5.323413610E-1,-3.729405999E-1,9.318807125E-1
7.167505833E-1,-5.422115326E-1,-3.812709451E-1,1.028831363E0
7.367515833E-1,-5.535025597E-1,-3.830534518E-1,1.099892497E0
7.567525833E-1,-5.628372431E-1,-3.753261566E-1,1.148572206E0
7.767525833E-1,-5.864152312E-1,-3.473913372E-1,1.192172647E0
7.967535834E-1,-5.946915150E-1,-3.098050058E-1,1.236726999E0
8.167545833E-1,-5.856674314E-1,-3.056187630E-1,1.257833958E0
8.367555834E-1,-5.977309942E-1,-3.276144862E-1,1.241141319E0
8.567565833E-1,-6.454439759E-1,-3.221231699E-1,1.200282574E0
8.767575833E-1,-6.776887774E-1,-2.868266404E-1,1.127254367E0
8.967585833E-1,-6.874886751E-1,-2.333108336E-1,1.030434728E0
9.167595833E-1,-6.793793440E-1,-1.587509960E-1,9.289361238E-1
9.367605833E-1,-6.765267849E-1,-5.650183558E-2,8.381980062E-1
9.567615833E-1,-6.788596511E-1,4.419723526E-2,7.615973949E-1
9.767625834E-1,-6.687783003E-1,1.388464719E-1,6.939721704E-1
9.967635833E-1,-6.682115793E-1,2.017417550E-1,6.417274475E-1
1.016763583E0,-6.543304324E-1,2.358055562E-1,5.982921720E-1
1.036764583E0,-6.392537951E-1,2.546800673E-1,5.546410680E-1
1.056765583E0,-6.201708317E-1,2.700948715E-1,5.114994049E-1
1.076766583E0,-6.182848215E-1,2.557545006E-1,4.624805748E-1
1.096767583E0,-6.235908866E-1,2.066645771E-1,3.867887855E-1
1.116768583E0,-6.145260334E-1,1.592607796E-1,2.800155878E-1
1.136769583E0,-5.672398210E-1,1.647468656E-1,1.693647057E-1
1.156770583E0,-4.874655604E-1,2.326187491E-1,8.846203238E-2
1.176771583E0,-4.213868976E-1,3.032896221E-1,3.132086992E-2
1.196772583E0,-3.966920078E-1,3.439953327E-1,-4.849714786E-2
1.216773583E0,-3.751673102E-1,3.428243995E-1,-1.706709862E-1
1.236774583E0,-3.185900450E-1,3.320807517E-1,-3.234942555E-1
1.256775583E0,-2.427524775E-1,3.648796380E-1,-4.601772428E-1
1.276776583E0,-1.520604342E-1,4.530415237E-1,-5.888244510E-1
1.296776583E0,-6.172780693E-2,5.326511264E-1,-7.212213874E-1
1.316777583E0,5.269191414E-2,6.135939360E-1,-8.810034394E-1
1.336778583E0,1.809198856E-1,7.136522532E-1,-1.018286347E0
1.356779583E0,2.787122130E-1,8.376230001E-1,-1.040721416E0
1.376780583E0,3.582886457E-1,9.419414401E-1,-9.571436048E-1
1.396781583E0,4.556630552E-1,9.680603743E-1,-8.550258279E-1
1.416782583E0,5.625258088E-1,8.729038239E-1,-7.896139622E-1
1.436783583E0,6.500138640E-1,6.618534327E-1,-7.642080784E-1
1.456784583E0,6.631790400E-1,3.559176028E-1,-7.414863110E-1
1.476785583E0,5.053563118E-1,8.102302253E-2,-6.923083067E-1
1.496786583E0,2.768794596E-1,-6.060314924E-2,-6.203101873E-1
1.516787583E0,1.040104851E-1,-1.285041571E-1,-6.028853655E-1
1.536787958E0,-7.443818729E-3,-1.430544108E-1,-6.467342973E-1
1.556788958E0,-1.276768893E-1,-8.509071171E-2,-7.265871763E-1
1.576789958E0,-2.432377934E-1,9.352152795E-2,-7.996029258E-1
1.596790958E0,-3.000787199E-1,3.781356215E-1,-8.327469230E-1
1.616790958E0,-2.809689045E-1,6.139226556E-1,-8.081955314E-1
1.636791958E0,-2.070220113E-1,6.828998923E-1,-8.363870382E-1
1.656792958E0,-1.528740972E-1,6.548324823E-1,-9.322195649E-1
1.676793958E0,-3.962799162E-2,6.852747202E-1,-1.036908984E0
1.696794958E0,1.157394648E-1,8.255318999E-1,-1.081168294E0
1.716795958E0,2.823220789E-1,8.703373075E-1,-1.061831474E0
1.736796958E0,5.147305727E-1,7.507902384E-1,-1.098870516E0
1.756797958E0,7.744052410E-1,6.565443873E-1,-1.077651978E0
1.776798958E0,1.336659312E0,7.838024497E-1,-1.137808681E0
1.796799958E0,2.176789761E0,9.336766005E-1,-1.401057482E0
1.816800958E0,3.086494446E0,8.500871658E-1,-1.695991039E0
1.836801958E0,4.049150944E0,9.757806659E-1,-1.837106705E0
1.856802958E0,5.133495808E0,1.886980414E0,-1.801189423E0
1.876803958E0,6.172323704E0,2.851121187E0,-1.454926968E0
1.896804958E0,6.896926403E0,3.043645620E0,-9.691175222E-1
1.916805958E0,7.076026440E0,2.188677073E0,-6.884235740E-1
1.936806958E0,6.511473179E0,6.564550400E-1,-8.636156917E-1
1.956807958E0,5.128097057E0,-6.259033084E-1,-1.265167236E0
1.976808958E0,3.597855568E0,-9.996954203E-1,-1.462453961E0
1.996809958E0,2.337645769E0,-1.019169927E0,-1.132135630E0
2.016810958E0,1.873397231E0,1.112155437E0,2.517037868E0
2.036811958E0,3.808843851E0,8.580375910E-1,-8.701368570E-1
2.056812958E0,1.694431424E0,-1.979555011E0,-4.990290105E-1
2.076813958E0,1.016697764E0,-1.179106355E0,-1.346087307E-1
2.096814958E0,5.185337663E-1,-1.529613853E0,-7.422673106E-1
2.116814958E0,-4.430642128E-1,-1.535050273E0,-6.426935196E-1
2.136815958E0,-6.339361668E-1,-1.061682820E0,-5.693341494E-1
2.156816958E0,-1.015028358E0,-9.551105499E-1,-4.005148709E-1
2.176817958E0,-1.509835720E0,-8.966897130E-1,-1.245650277E-2
2.196818958E0,-1.779116869E0,-8.838080168E-1,2.153346390E-1
2.216819958E0,-1.772586942E0,-6.908162832E-1,3.934822679E-1
2.236820958E0,-1.763906956E0,-4.998311698E-1,6.032471061E-1
2.256821958E0,-1.872909784E0,-4.238313437E-1,7.808073163E-1
2.276822958E0,-2.009355783E0,-4.150334299E-1,8.932116032E-1
2.296823958E0,-2.109749556E0,-2.993145883E-1,9.259065986E-1
2.316824958E0,-2.247777462E0,-1.208283752E-1,9.437669516E-1
2.336825958E0,-2.306299686E0,-5.207728967E-2,9.571055770E-1
2.356826958E0,-2.286528349E0,-1.714357287E-1,8.987525105E-1
2.376827958E0,-2.225329876E0,-2.066540569E-1,8.827454448E-1
2.396828958E0,-2.166061878E0,1.249884367E-1,1.091862917E0
2.416829958E0,-2.026494741E0,4.355019927E-1,1.412757397E0
2.436830958E0,-1.755444765E0,3.556062877E-1,1.560881615E0
2.456831958E0,-1.545181870E0,-2.633589692E-2,1.511567593E0
2.476832958E0,-1.431506634E0,-4.189840853E-1,1.467156172E0
2.496833958E0,-1.321630478E0,-5.434491634E-1,1.551766634E0
2.516834958E0,-1.137567163E0,-4.136007726E-1,1.763734341E0
2.536835958E0,-9.414983988E-1,-2.353652269E-1,1.946306586E0
2.556836958E0,-8.237287998E-1,-1.321233064E-1,2.003826618E0
2.576837958E0,-7.908450365E-1,-1.508190483E-1,1.951531172E0
2.596838958E0,-7.842848301E-1,-1.948298067E-1,1.876220107E0
2.616839958E0,-7.672916055E-1,-1.313115656E-1,1.851112843E0
2.636840958E0,-7.156370282E-1,-6.474605203E-2,1.885474324E0
2.656841958E0,-6.644100547E-1,-4.995087907E-2,1.902179837E0
2.676842958E0,-6.474612355E-1,-9.890682995E-2,1.894532800E0
2.696843958E0,-6.459951401E-1,-2.062737346E-1,1.862945437E0
2.716844958E0,-6.333680153E-1,-3.417706192E-1,1.795796394E0
2.736845958E0,-6.061851978E-1,-4.319094121E-1,1.704745770E0
2.756846958E0,-5.789369941E-1,-4.329913259E-1,1.614408493E0
2.776847958E0,-5.472928882E-1,-3.414599895E-1,1.542559862E0
2.796848958E0,-5.060231686E-1,-2.376901507E-1,1.503905177E0
2.816849958E0,-4.405504763E-1,-1.724276692E-1,1.457797408E0
2.836850958E0,-3.755402863E-1,-1.755933017E-1,1.381269574E0
2.856851958E0,-3.451139033E-1,-2.294743210E-1,1.287494183E0
2.876852958E0,-3.293615580E-1,-3.084238172E-1,1.176243663E0
2.896853958E0,-3.027680516E-1,-3.539821506E-1,1.050875545E0
2.916854958E0,-2.471324950E-1,-3.392016590E-1,9.341017604E-1
2.936855958E0,-1.997998506E-1,-2.828863561E-1,8.334898353E-1
2.956856958E0,-1.640463918E-1,-2.149941474E-1,7.185320258E-1
2.976857958E0,-1.369181573E-1,-1.778719872E-1,5.904851556E-1
2.996858958E0,-1.195120141E-1,-1.459612846E-1,4.638023973E-1
3.016859958E0,-9.520261735E-2,-1.229827702E-1,3.647770584E-1
3.036860958E0,-3.800385073E-2,-1.142497361E-1,2.674367726E-1
3.056861958E0,1.973142847E-2,-1.152380109E-1,1.625867188E-1
3.076862958E0,6.050302461E-2,-1.116041094E-1,7.546131313E-2
3.096864958E0,9.620862454E-2,-9.760069102E-2,6.963523920E-4
3.116865958E0,1.373871118E-1,-7.568914443E-2,-5.981250852E-2
3.136866958E0,1.725877523E-1,-4.384236783E-2,-9.068877995E-2
3.156867958E0,1.915329844E-1,-2.469866537E-2,-1.145856008E-1
3.176868958E0,2.040802240E-1,-1.963826828E-2,-1.471597403E-1
3.196869958E0,2.043283731E-1,-3.891491331E-3,-1.739679575E-1
3.216870958E0,2.032545507E-1,2.787633566E-3,-1.924257427E-1
3.236871958E0,1.960256696E-1,6.861471105E-3,-2.093277574E-1
3.256872958E0,1.726763844E-1,5.752202123E-3,-2.231902033E-1
3.276873958E0,1.409128457E-1,-4.945820197E-3,-2.448211908E-1
3.296874958E0,1.150655374E-1,-2.550728805E-2,-2.708493471E-1
3.316875958E0,8.400759101E-2,-3.704770282E-2,-3.026549816E-1
3.336876958E0,5.141893774E-2,-2.540227771E-2,-3.159899414E-1
3.356877958E0,2.950000018E-2,2.690668916E-3,-3.246324360E-1
3.376878958E0,2.766269632E-2,4.613112658E-2,-3.451424241E-1
3.396879958E0,2.220348828E-2,9.024614841E-2,-3.589085042E-1
3.416880958E0,2.912633494E-2,1.195410341E-1,-3.771954775E-1
3.436881958E0,5.115946382E-2,1.339905411E-1,-3.985297978E-1
3.456882958E0,8.510287106E-2,1.516929269E-1,-4.005204737E-1
3.476883958E0,1.176514179E-1,1.589587778E-1,-3.840301335E-1
3.496884958E0,1.470098048E-1,1.358954459E-1,-3.767207563E-1
3.516885958E0,1.722081453E-1,8.984206617E-2,-3.753713071E-1
3.536886958E0,2.055852413E-1,5.640352890E-2,-3.452960551E-1
3.556887958E0,2.476674467E-1,4.661266133E-2,-2.762848139E-1
3.576889958E0,2.789790034E-1,5.526816100E-2,-1.887689233E-1
3.596890958E0,2.811958194E-1,5.172238871E-2,-9.351760894E-2
3.616891958E0,2.487150729E-1,3.634250537E-2,9.248140268E-3
3.636892958E0,2.094596028E-1,-1.626989618E-2,1.054526865E-1
3.656893958E0,1.881311387E-1,-8.568941057E-2,1.964554042E-1
3.676894958E0,1.606600583E-1,-1.520854235E-1,3.063395917E-1
3.696895958E0,1.180965975E-1,-2.166926861E-1,4.116951823E-1
3.716896958E0,5.964049324E-2,-2.684495747E-1,5.098580718E-1
3.736897958E0,6.501601078E-3,-3.116637766E-1,5.919355750E-1
3.756898958E0,-2.613802999E-2,-3.537313640E-1,6.534705758E-1
3.776899958E0,-5.897222459E-2,-4.105741680E-1,6.911792159E-1
3.796900958E0,-1.069163010E-1,-4.657260478E-1,7.263285518E-1
3.816901958E0,-1.244407073E-1,-4.713919461E-1,7.567443848E-1
3.836902958E0,-1.336685419E-1,-4.146683812E-1,7.854402065E-1
3.856903958E0,-1.519714594E-1,-3.282323182E-1,8.132176399E-1
3.876905958E0,-1.768450439E-1,-2.413323522E-1,8.216710091E-1
3.896906958E0,-2.246975452E-1,-1.514861286E-1,8.120436072E-1
3.916907958E0,-2.519443929E-1,-8.837311715E-2,8.245517612E-1
3.936908958E0,-2.590638995E-1,-5.856940895E-2,8.388504386E-1
3.956909958E0,-2.834120691E-1,-5.475778133E-2,8.410150409E-1
3.976910958E0,-3.198205829E-1,-5.985452980E-2,8.353634477E-1
3.996911958E0,-3.439236283E-1,-7.159192860E-2,8.153647184E-1
4.016912958E0,-3.516474366E-1,-7.965298742E-2,7.774504423E-1
4.036913958E0,-3.388140500E-1,-6.803756952E-2,7.353374958E-1
4.056914958E0,-3.128775358E-1,-4.615564272E-2,7.029373646E-1
4.076915958E0,-2.813896239E-1,-1.890951209E-2,6.596869230E-1
4.096916958E0,-2.561661303E-1,-3.450378776E-3,6.074885130E-1
4.116917958E0,-2.213683873E-1,1.663341746E-2,5.448270440E-1
4.136919958E0,-1.881980002E-1,4.436672479E-2,4.841474593E-1
4.156920958E0,-1.620225012E-1,6.640419364E-2,4.297575057E-1
4.176921958E0,-1.411507726E-1,6.253270805E-2,3.689174950E-1
4.196922958E0,-1.325126886E-1,5.115363747E-2,3.046937585E-1
4.216923958E0,-1.265873462E-1,4.883585870E-2,2.403083891E-1
4.236924958E0,-1.155109182E-1,7.161759585E-2,1.829173714E-1
4.256925958E0,-1.132076681E-1,1.079134047E-1,1.177839860E-1
4.276926958E0,-1.103569865E-1,1.397161931E-1,5.366837606E-2
4.296927958E0,-1.030431464E-1,1.504418105E-1,-1.320200227E-2
4.316928958E0,-9.263894707E-2,1.483491957E-1,-7.200247794E-2
4.336930958E0,-8.634546399E-2,1.409886777E-1,-1.088830307E-1
4.356931958E0,-9.735737741E-2,1.421729326E-1,-1.356572211E-1
4.376932958E0,-1.068469882E-1,1.500698775E-1,-1.744543612E-1
4.396933958E0,-1.144175977E-1,1.688367277E-1,-2.054808736E-1
4.416934958E0,-1.131932661E-1,1.939695328E-1,-2.186468691E-1
4.436935958E0,-1.161959842E-1,2.200024575E-1,-2.216389328E-1
4.456936958E0,-1.245072186E-1,2.395054102E-1,-2.203565091E-1
4.476937958E0,-1.308548599E-1,2.502110302E-1,-2.023429424E-1
4.496938958E0,-1.302002370E-1,2.490627915E-1,-1.809833348E-1
4.516940958E0,-1.275581419E-1,2.288815528E-1,-1.584835052E-1
4.536942083E0,-1.354799420E-1,2.041081339E-1,-1.405444592E-1
4.556943083E0,-1.497280598E-1,1.791108549E-1,-1.188173369E-1
4.576944083E0,-1.688807905E-1,1.510834843E-1,-1.047128439E-1
4.596945083E0,-2.002621442E-1,1.126468852E-1,-9.585698694E-2
4.616946083E0,-2.329322845E-1,9.492087364E-2,-1.077313572E-1
4.636947083E0,-2.809000015E-1,1.159600839E-1,-1.242770106E-1
4.656948083E0,-3.307724297E-1,1.763793081E-1,-1.476074308E-1
4.676949083E0,-3.731564283E-1,2.418322861E-1,-1.839671731E-1
4.696951083E0,-4.105356038E-1,3.036634922E-1,-2.356101573E-1
4.716952083E0,-4.311710596E-1,3.551785946E-1,-3.041349351E-1
4.736953083E0,-4.450024962E-1,4.360589981E-1,-3.732014298E-1
4.756954083E0,-4.465148747E-1,5.481783748E-1,-4.452222586E-1
4.776955083E0,-4.303087294E-1,6.387594342E-1,-5.390489101E-1
4.796956083E0,-3.926404715E-1,7.000797391E-1,-6.815544963E-1
4.816957083E0,-3.501346111E-1,7.587313652E-1,-8.333081007E-1
4.836958083E0,-3.110878170E-1,8.612645864E-1,-9.819785357E-1
4.856960083E0,-2.717407644E-1,9.778122306E-1,-1.122260928E0
4.876961083E0,-2.089932412E-1,1.089875221E0,-1.302894354E0
4.896962083E0,-1.297295094E-1,1.201438427E0,-1.504274607E0
4.916963083E0,-4.530319013E-3,1.333753705E0,-1.722144008E0
4.936964083E0,1.705576330E-1,1.470079660E0,-1.990272522E0
4.956965083E0,3.815590143E-1,1.400718570E0,-2.345318794E0
4.976966083E0,6.661828756E-1,1.148191929E0,-2.789732218E0
4.996967083E0,1.106345773E0,1.051563740E0,-3.128262758E0
5.016969083E0,1.679134011E0,1.327081084E0,-3.268866777E0
5.036970083E0,2.452893257E0,1.628092289E0,-3.302085876E0
5.056971083E0,3.363194704E0,1.684282660E0,-3.192441225E0
5.076972083E0,4.383307934E0,1.617812157E0,-2.863525152E0
5.096973083E0,5.334291935E0,1.661605239E0,-2.300000668E0
5.116974083E0,6.080667019E0,1.463272691E0,-1.862866282E0
5.136975083E0,6.567413330E0,6.923551559E-1,-1.670750141E0
5.156977083E0,6.577124119E0,-2.281894982E-1,-1.648115635E0
5.176978083E0,6.022780895E0,-8.129201531E-1,-1.623752236E0
5.196979083E0,5.203479767E0,-8.709188700E-1,-1.549032211E0
5.216980083E0,3.268847704E0,-6.240791678E-1,-3.426588774E-1
5.236981083E0,3.182913303E0,1.740113854E0,3.933769703E0
5.256982083E0,1.097084641E0,-1.506068707E0,-5.786374211E-1
5.276983083E0,-1.178792715E0,-3.952311039E0,-2.505490780E0
5.296985083E0,-1.361110568E0,-2.370807886E0,-1.621897697E0
5.316986083E0,-2.107629538E0,-2.073633432E0,-1.878975749E0
5.336987083E0,-2.744684935E0,-6.287639141E-1,-1.479540467E0
5.356988083E0,-2.765474081E0,1.752845794E-1,-6.924027205E-1
5.376989083E0,-2.564522505E0,4.540671408E-1,-4.612487853E-1
5.396990083E0,-2.388752222E0,3.653301001E-1,4.043918848E-2
5.416991083E0,-2.208613396E0,-2.964546978E-1,4.402123988E-1
5.436993083E0,-1.893852830E0,-1.240762949E0,3.135518432E-1
5.456994083E0,-1.584027886E0,-1.685864091E0,1.043991968E-1
5.476995083E0,-1.342083931E0,-1.478081584E0,3.104965091E-1
5.496996083E0,-1.097842216E0,-8.642525077E-1,6.959639788E-1
5.516997083E0,-9.198950529E-1,-3.200439513E-1,8.975868225E-1
5.536997792E0,-8.190335631E-1,-1.848486625E-2,8.875876069E-1
5.556999792E0,-7.594988346E-1,2.146544755E-1,8.683472276E-1
5.577000792E0,-7.341207862E-1,3.685356379E-1,1.017817378E0
5.597001792E0,-7.175188661E-1,3.863923848E-1,1.201857448E0
5.617002792E0,-7.130317092E-1,1.600154191E-1,1.273921728E0
5.637003792E0,-7.563275099E-1,-1.994872242E-1,1.250983953E0
5.657004792E0,-7.879707217E-1,-4.412310123E-1,1.271903634E0
5.677006792E0,-7.727679610E-1,-4.670260847E-1,1.430217624E0
5.697007792E0,-6.627704501E-1,-4.320314527E-1,1.629173040E0
5.717008792E0,-5.433412194E-1,-3.912932873E-1,1.726382494E0
5.737009792E0,-4.593595862E-1,-3.946724534E-1,1.765870452E0
5.757010792E0,-3.995222449E-1,-4.008767307E-1,1.787872434E0
5.777011792E0,-3.143626750E-1,-3.632771671E-1,1.814869761E0
5.797012792E0,-2.152102292E-1,-2.802473605E-1,1.866047621E0
5.817014792E0,-1.395114213E-1,-2.389448285E-1,1.890834212E0
5.837015792E0,-6.661753356E-2,-2.847733498E-1,1.864201546E0
5.857016792E0,-2.599156648E-2,-3.804871738E-1,1.810707688E0
5.877017792E0,-1.295942441E-2,-4.663127363E-1,1.730275631E0
5.897018792E0,1.017440204E-2,-4.554366171E-1,1.629375696E0
5.917019792E0,4.683838785E-2,-3.715684116E-1,1.527496576E0
5.937021792E0,8.781965077E-2,-2.671261132E-1,1.435101032E0
5.957022792E0,1.084367707E-1,-1.990677714E-1,1.322627306E0
5.977023792E0,1.036728099E-1,-1.980949789E-1,1.196283460E0
5.997024792E0,1.043469757E-1,-1.881700158E-1,1.079694986E0
6.017025792E0,9.906161577E-2,-1.422439814E-1,1.008714437E0
6.037026792E0,8.871231228E-2,-9.941899776E-2,9.570643306E-1
6.057028792E0,9.590230882E-2,-7.860212773E-2,8.809552193E-1
6.077029792E0,1.002324000E-1,-8.113221824E-2,7.913985252E-1
6.097030792E0,9.605339915E-2,-1.108106449E-1,7.005525231E-1
6.117031792E0,8.028202504E-2,-1.238840595E-1,6.253762841E-1
6.137032792E0,5.807106942E-2,-1.270031333E-1,5.740244985E-1
6.157033792E0,4.320243001E-2,-1.429179907E-1,5.108771324E-1
6.177035792E0,1.924455352E-2,-1.773196459E-1,4.364672303E-1
6.197036792E0,-8.584161289E-3,-2.131464034E-1,3.522025943E-1
6.217037792E0,-8.502922952E-3,-2.094466984E-1,2.842688859E-1
6.237038792E0,1.230695657E-2,-1.534313262E-1,2.428748757E-1
6.257039792E0,5.941405147E-2,-1.047203764E-1,1.969588399E-1
6.277041792E0,8.558408171E-2,-7.807192206E-2,1.427587718E-1
6.297042792E0,6.442777067E-2,-5.983525515E-2,9.339615703E-2
6.317043792E0,3.049821593E-2,-4.694294184E-2,4.712247476E-2
6.337044792E0,2.863158472E-3,-3.118463792E-2,1.202946063E-2
6.357045792E0,-1.930042356E-2,-1.513281092E-2,-1.624815166E-2
6.377046792E0,-3.502108157E-2,-3.038665280E-3,-4.211399332E-2
6.397048792E0,-5.892666429E-2,-6.111086812E-3,-6.396000832E-2
6.417049792E0,-8.187598735E-2,1.862785779E-2,-7.591040432E-2
6.437050792E0,-9.666290879E-2,6.274314225E-2,-6.204247102E-2
6.457051792E0,-9.348713607E-2,1.044145375E-1,-4.164781794E-2
6.477052792E0,-9.353581816E-2,1.187577024E-1,-3.345791250E-2
6.497054792E0,-1.194926798E-1,1.059150845E-1,-3.265303746E-2
6.517055792E0,-1.316382736E-1,7.343154401E-2,-4.672151059E-2
6.537057417E0,-1.407678276E-1,5.044317618E-2,-6.174482778E-2
6.557058417E0,-1.525190324E-1,4.452456534E-2,-7.435942441E-2
6.577059417E0,-1.592666805E-1,4.868255928E-2,-9.198715538E-2
6.597061417E0,-1.634427607E-1,8.000302315E-2,-1.029993817E-1
6.617062417E0,-1.681649238E-1,1.693942696E-1,-8.128522336E-2
