"Time (s)","X (rad/s)","Y (rad/s)","Z (rad/s)"
5.623249992E-3,-1.461369693E-1,-4.357597232E-1,3.176033199E-1
1.554924999E-2,-2.361917347E-1,-6.896015406E-1,4.026834369E-1
2.547524999E-2,-3.204195201E-1,-1.013695240E0,4.686337113E-1
3.540025000E-2,-3.858456016E-1,-1.414481282E0,4.972180128E-1
4.532624999E-2,-4.022573233E-1,-1.865443468E0,4.766133726E-1
5.525224999E-2,-3.826743662E-1,-2.307337523E0,4.345107079E-1
6.517824999E-2,-3.310090303E-1,-2.649369478E0,4.037735760E-1
7.510424999E-2,-2.778407335E-1,-2.761467695E0,3.995302022E-1
8.502925000E-2,-2.219835967E-1,-2.613404989E0,3.983988762E-1
9.495525000E-2,-1.744980812E-1,-2.218137264E0,3.947888613E-1
1.048812500E-1,-1.645932496E-1,-1.644354224E0,3.793678284E-1
1.148072500E-1,-1.444795579E-1,-1.036930680E0,3.433742225E-1
1.247332500E-1,-1.191302761E-1,-5.052476525E-1,2.844709456E-1
1.346582500E-1,-7.072463632E-2,-1.217823848E-1,2.135066539E-1
1.445842500E-1,-6.382130552E-3,1.212563664E-1,1.472602636E-1
1.545102500E-1,4.418499395E-2,2.750554979E-1,1.078068838E-1
1.644362500E-1,8.756868541E-2,3.601357639E-1,9.626847506E-2
1.743622500E-1,1.169819087E-1,3.930519223E-1,1.043363512E-1
1.842872500E-1,1.219793335E-1,3.766534925E-1,1.077406704E-1
1.942132500E-1,1.054259837E-1,2.718079388E-1,9.778897464E-2
2.041392500E-1,9.415815026E-2,1.044650078E-1,5.937367678E-2
2.140652500E-1,8.983621001E-2,-1.018820554E-1,-5.866499152E-3
2.239912500E-1,9.296808392E-2,-3.447287977E-1,-7.268361002E-2
2.339172500E-1,9.949441999E-2,-5.871701241E-1,-1.224004030E-1
2.438422500E-1,1.029080600E-1,-7.727498412E-1,-1.426713169E-1
2.537682500E-1,9.822942317E-2,-8.912946582E-1,-1.238005906E-1
2.636942500E-1,8.133832365E-2,-9.509419799E-1,-7.643520832E-2
2.736202500E-1,5.988594145E-2,-9.527536631E-1,-1.704390906E-2
2.835462500E-1,4.699784145E-2,-9.483277202E-1,4.029261693E-2
2.934712500E-1,3.678416088E-2,-9.414449334E-1,7.357314229E-2
3.033972500E-1,2.078681812E-2,-9.212413430E-1,7.040663809E-2
3.133232500E-1,1.004049182E-2,-9.488284588E-1,2.565526776E-2
3.232492500E-1,1.678894088E-2,-1.028140306E0,-5.260837451E-2
3.331752500E-1,3.592451289E-2,-1.060511231E0,-1.396545470E-1
3.431002500E-1,6.947635114E-2,-9.891299605E-1,-2.078221589E-1
3.530262500E-1,1.113838702E-1,-7.676171064E-1,-2.302873582E-1
3.629522500E-1,1.558658481E-1,-3.963711560E-1,-2.078832537E-1
3.728782500E-1,2.088752538E-1,6.459897012E-2,-1.634853184E-1
3.828042500E-1,2.446175367E-1,5.321086645E-1,-1.202536896E-1
3.927292500E-1,2.691003382E-1,9.302903414E-1,-9.409716725E-2
4.026552500E-1,2.820115983E-1,1.218285680E0,-7.576103508E-2
4.125812500E-1,2.835472226E-1,1.391407490E0,-6.608880311E-2
4.225072500E-1,2.709533870E-1,1.455284238E0,-5.710916221E-2
4.324332500E-1,2.507719398E-1,1.432970524E0,-3.855231404E-2
4.423592500E-1,2.124271989E-1,1.359532952E0,-2.027077787E-2
4.522842500E-1,1.616635770E-1,1.253561854E0,4.770171363E-3
4.622102500E-1,1.101385951E-1,1.112600207E0,2.677241154E-2
4.721362500E-1,5.178903043E-2,9.376806021E-1,3.940410167E-2
4.820622500E-1,-1.121789869E-2,7.384324670E-1,4.004725814E-2
4.919882500E-1,-8.672206849E-2,5.329468250E-1,3.364489600E-2
5.019132500E-1,-1.606799215E-1,3.454784155E-1,3.201104701E-2
5.118392500E-1,-2.289824486E-1,1.511608958E-1,4.962409288E-2
5.217652500E-1,-2.972520590E-1,-2.920861728E-2,7.749727368E-2
5.316912500E-1,-3.564043343E-1,-1.910736710E-1,1.131418198E-1
5.416172500E-1,-3.960316479E-1,-3.433308601E-1,1.440629810E-1
5.515422500E-1,-4.377107024E-1,-4.751278162E-1,1.546919644E-1
5.614682500E-1,-4.781217873E-1,-5.617383122E-1,1.491429955E-1
5.713942500E-1,-5.183076859E-1,-5.817871094E-1,1.388624161E-1
5.813202500E-1,-5.581398010E-1,-5.036318302E-1,1.419761926E-1
5.912462500E-1,-5.943461657E-1,-3.296792507E-1,1.653528661E-1
6.011712500E-1,-6.421142220E-1,-7.687124610E-2,2.144895196E-1
6.110972500E-1,-6.977208853E-1,1.979745030E-1,2.781903148E-1
6.210232500E-1,-7.175521255E-1,3.797818720E-1,3.379527032E-1
6.309492500E-1,-7.273533940E-1,4.675017595E-1,3.714295626E-1
6.408752500E-1,-7.480687499E-1,5.028389692E-1,3.783689439E-1
6.508012500E-1,-7.674990892E-1,5.353748202E-1,3.852035105E-1
6.607262500E-1,-7.919743061E-1,6.025804877E-1,4.063521922E-1
6.706522500E-1,-8.196169138E-1,7.307397127E-1,4.439468086E-1
6.805782500E-1,-8.504831791E-1,8.651766181E-1,4.868303537E-1
6.905042500E-1,-8.718410730E-1,9.419628978E-1,5.158968568E-1
7.004302500E-1,-8.768699169E-1,9.042738080E-1,5.115551353E-1
7.103552500E-1,-8.648046851E-1,7.423911691E-1,4.633971453E-1
7.202812500E-1,-8.435595632E-1,4.945006967E-1,3.910398483E-1
7.302072500E-1,-8.053835034E-1,2.401052713E-1,3.286410272E-1
7.401332500E-1,-7.569001317E-1,4.622209445E-2,3.049860299E-1
7.500592500E-1,-7.013058066E-1,-5.298448354E-2,3.179262280E-1
7.599842500E-1,-6.533425450E-1,-4.293477908E-2,3.549422920E-1
7.699102500E-1,-6.184465289E-1,6.630643457E-2,4.043102860E-1
7.798362500E-1,-5.824895501E-1,2.165827602E-1,4.475325942E-1
7.897622500E-1,-5.452208519E-1,3.116596043E-1,4.738281965E-1
7.996882500E-1,-4.971681237E-1,2.950848937E-1,4.561519921E-1
8.096142500E-1,-4.501669109E-1,1.910219193E-1,3.929052055E-1
8.195392500E-1,-4.119838476E-1,8.770963550E-2,3.146314621E-1
8.294652500E-1,-3.756948411E-1,3.474435583E-2,2.368671298E-1
8.393912500E-1,-3.291981816E-1,7.989504933E-2,1.792850643E-1
8.493172500E-1,-2.875481546E-1,2.430902421E-1,1.474773884E-1
8.592432500E-1,-2.520236969E-1,5.111017227E-1,1.442224681E-1
8.691682500E-1,-2.365381718E-1,8.340236545E-1,1.569298208E-1
8.790942500E-1,-2.130416334E-1,1.132856488E0,1.667124033E-1
8.890202500E-1,-1.951517016E-1,1.333253622E0,1.622546315E-1
8.989462500E-1,-1.749718636E-1,1.374171138E0,1.344610751E-1
9.088722500E-1,-1.445652843E-1,1.262220860E0,9.198332578E-2
9.187972500E-1,-1.155733094E-1,1.029562235E0,4.018750414E-2
9.287232500E-1,-8.408809453E-2,7.281824946E-1,-2.216781024E-3
9.386492500E-1,-6.522385776E-2,3.853418231E-1,-3.132326528E-2
9.485751250E-1,-5.182404816E-2,3.582487255E-2,-4.566223919E-2
9.585011250E-1,-3.467994928E-2,-2.740605772E-1,-5.365065858E-2
9.684271250E-1,-2.135349065E-2,-5.169121027E-1,-5.330790952E-2
9.783521250E-1,-1.520611625E-2,-6.788501143E-1,-5.017629638E-2
9.882781250E-1,-8.341444656E-3,-7.485285997E-1,-4.370814934E-2
9.982041250E-1,-1.102431305E-2,-7.256895900E-1,-3.794373572E-2
1.008130125E0,-4.924627021E-3,-6.415313482E-1,-3.058196418E-2
1.018056125E0,-2.829518868E-3,-5.057258606E-1,-2.681492269E-2
1.027981125E0,2.484951168E-3,-3.425909579E-1,-2.119903453E-2
1.037907125E0,3.488963004E-3,-1.584701091E-1,-1.610787027E-2
1.047833125E0,2.129211789E-4,1.681331173E-2,-1.157066226E-2
1.057759125E0,-1.752491691E-3,1.597073525E-1,-1.645862684E-2
1.067685125E0,-5.838915240E-3,2.557645440E-1,-2.052139863E-2
1.077611125E0,-5.493769422E-3,3.056242466E-1,-2.922993526E-2
1.087536125E0,-1.794014708E-3,3.067710102E-1,-3.950386122E-2
1.097462125E0,-1.691216719E-3,2.678965628E-1,-5.209502205E-2
1.107388125E0,-7.118148264E-3,1.918770373E-1,-6.337929517E-2
1.117314125E0,-8.891546167E-3,9.693853557E-2,-7.039592415E-2
1.127240125E0,-1.197075285E-2,2.008168958E-3,-7.272572815E-2
1.137165125E0,-1.139018312E-2,-7.984860986E-2,-7.264982909E-2
1.147091125E0,-1.389346737E-2,-1.428300887E-1,-6.745813787E-2
1.157017125E0,-1.231208164E-2,-1.844260097E-1,-6.414223462E-2
1.166943125E0,-9.688982740E-3,-1.974242479E-1,-6.259804964E-2
1.176869125E0,-8.375511505E-3,-1.812791079E-1,-6.324706227E-2
1.186794125E0,-1.343285316E-3,-1.463132799E-1,-6.379585713E-2
1.196720125E0,1.147211157E-2,-1.016480848E-1,-7.069610804E-2
1.206646125E0,1.970025711E-2,-4.714669287E-2,-6.751036644E-2
1.216572125E0,3.222430497E-2,4.413437098E-3,-6.790611148E-2
1.226498125E0,3.707947955E-2,6.331339478E-2,-7.147689909E-2
1.236424125E0,4.370009899E-2,1.171483845E-1,-8.109117299E-2
1.246349125E0,4.728261754E-2,1.705576628E-1,-9.266951680E-2
1.256275125E0,5.327206478E-2,2.237093002E-1,-1.015061513E-1
1.266201125E0,5.395120382E-2,2.783179581E-1,-1.103038490E-1
1.276127125E0,4.510125145E-2,3.063823581E-1,-1.103834808E-1
1.286053125E0,4.559972510E-2,3.087480068E-1,-1.134508103E-1
1.295978125E0,4.607243463E-2,2.853633463E-1,-1.137935594E-1
1.305904125E0,4.783015326E-2,2.512623370E-1,-1.149793640E-1
1.315830125E0,5.748331174E-2,2.060775161E-1,-1.077022702E-1
1.325756125E0,6.092830375E-2,1.709647328E-1,-9.349922091E-2
1.335682125E0,6.700563431E-2,1.515617371E-1,-7.375746965E-2
1.345607125E0,6.559176743E-2,1.334113479E-1,-5.864014477E-2
1.355533125E0,6.452544034E-2,9.883765131E-2,-4.928339645E-2
1.365459125E0,7.084515691E-2,4.846045375E-2,-5.713076144E-2
1.375385125E0,8.026742190E-2,-5.638733506E-3,-6.820099056E-2
1.385311125E0,8.807548881E-2,-4.513636231E-2,-7.213891298E-2
1.395237125E0,9.391234070E-2,-6.834740937E-2,-6.519126147E-2
1.405162125E0,1.030062735E-1,-7.393075526E-2,-5.302630737E-2
1.415088125E0,1.139042005E-1,-7.582452893E-2,-3.254633024E-2
1.425014125E0,1.251917332E-1,-7.032590359E-2,-2.509374171E-2
1.434940125E0,1.265643239E-1,-5.175195634E-2,-3.131648153E-2
1.444866125E0,1.300051808E-1,-2.772553824E-2,-4.339236394E-2
1.454791125E0,1.304893345E-1,-1.706783287E-2,-5.874895304E-2
1.464717125E0,1.385271102E-1,-2.723361738E-2,-7.965026796E-2
1.474643125E0,1.418043971E-1,-4.706431180E-2,-9.432348609E-2
1.484569125E0,1.389333606E-1,-5.797273666E-2,-1.019591242E-1
1.494495125E0,1.462815553E-1,-8.688347787E-2,-9.117465466E-2
1.504421125E0,1.519396752E-1,-1.105680540E-1,-7.569588721E-2
1.514346125E0,1.499463022E-1,-1.411145031E-1,-6.953652948E-2
1.524272125E0,1.461352557E-1,-1.460136920E-1,-6.173470244E-2
1.534198125E0,1.346226782E-1,-1.464549750E-1,-6.341302395E-2
1.544124125E0,1.056586802E-1,-1.445317417E-1,-7.115419954E-2
1.554050125E0,8.882004768E-2,-1.497733742E-1,-7.608504593E-2
1.563975125E0,8.810349554E-2,-1.985611022E-1,-8.792330325E-2
1.573901125E0,1.052457318E-1,-2.775627375E-1,-9.072601050E-2
1.583827125E0,1.235241592E-1,-3.427319825E-1,-8.311137557E-2
1.593753125E0,1.544184238E-1,-3.703138232E-1,-5.428505689E-2
1.603679125E0,1.922647357E-1,-3.618319631E-1,-2.045766264E-2
1.613605125E0,2.231278419E-1,-3.212014437E-1,4.356074613E-3
1.623530125E0,2.380919307E-1,-2.642863393E-1,-1.744475681E-3
1.633456125E0,2.577532232E-1,-2.118601352E-1,-3.060009331E-2
1.643382125E0,2.682688534E-1,-1.623652428E-1,-7.426393032E-2
1.653308125E0,2.818427086E-1,-1.371392459E-1,-1.116709560E-1
1.663234125E0,3.084467053E-1,-1.163911223E-1,-1.356074810E-1
1.673159125E0,3.292766213E-1,-1.013618410E-1,-1.461575925E-1
1.683085125E0,3.460144401E-1,-1.003595814E-1,-1.442264467E-1
1.693011125E0,3.429853618E-1,-9.362550825E-2,-1.478941590E-1
1.702937125E0,3.355272412E-1,-8.925523609E-2,-1.684358120E-1
1.712863125E0,3.339213729E-1,-1.045431122E-1,-1.909003705E-1
1.722789125E0,3.418606520E-1,-1.323903501E-1,-2.061633915E-1
1.732714125E0,3.505955637E-1,-1.600520611E-1,-2.104028910E-1
1.742640125E0,3.454094529E-1,-1.772413999E-1,-2.010216117E-1
1.752566125E0,3.242706060E-1,-1.893838197E-1,-1.846394390E-1
1.762492125E0,2.982796133E-1,-1.887843907E-1,-1.721695364E-1
1.772418125E0,2.742680311E-1,-1.906467378E-1,-1.712241024E-1
1.782343125E0,2.524707019E-1,-2.011722922E-1,-1.910672486E-1
1.792269125E0,2.200733572E-1,-2.050573230E-1,-2.041899711E-1
1.802195125E0,1.738649607E-1,-1.684626639E-1,-2.053700984E-1
1.812121125E0,1.223216131E-1,-9.319534153E-2,-1.862177104E-1
1.822047125E0,7.640944421E-2,3.088060766E-4,-1.563777477E-1
1.831973125E0,4.774371162E-2,7.984065264E-2,-1.117839143E-1
1.841898125E0,1.692907512E-2,1.822415292E-1,-7.722235471E-2
1.851824125E0,1.264458150E-2,2.762013078E-1,-5.873416364E-2
1.861750125E0,1.498827245E-3,3.594030738E-1,-4.546719044E-2
1.871676125E0,-5.165200680E-3,4.167089760E-1,-3.413889930E-2
1.881602125E0,3.371713683E-3,4.418751895E-1,-3.718893230E-2
1.891527125E0,1.785185188E-2,4.299492836E-1,-4.674062505E-2
1.901453125E0,2.452275157E-2,3.878184259E-1,-4.054393619E-2
1.911379125E0,3.353888169E-2,3.332928419E-1,-4.390058294E-2
1.921305125E0,4.699376225E-2,2.575480640E-1,-5.038473755E-2
1.931231125E0,6.960267574E-2,1.659480929E-1,-6.601376086E-2
1.941157125E0,1.032527909E-1,7.930727303E-2,-9.066531062E-2
1.951082375E0,1.404640824E-1,-1.067348011E-2,-1.145333573E-1
1.961008375E0,1.713131517E-1,-6.449502707E-2,-1.348302513E-1
1.970934375E0,1.998963356E-1,-8.277469128E-2,-1.417395622E-1
1.980860375E0,2.237701267E-1,-6.428346038E-2,-1.418537050E-1
1.990786375E0,2.464048564E-1,-1.153849345E-2,-1.406046897E-1
2.000712375E0,2.678970397E-1,6.138405949E-2,-1.346352845E-1
2.010637375E0,2.819699943E-1,1.349104792E-1,-1.340858787E-1
2.020563375E0,2.926749587E-1,2.348845303E-1,-1.312444806E-1
2.030489375E0,2.681152821E-1,3.712282479E-1,-1.213806570E-1
2.040415375E0,2.587336898E-1,4.823459089E-1,-1.230393946E-1
2.050341375E0,2.600450516E-1,5.483307838E-1,-1.264804602E-1
2.060266375E0,2.718375921E-1,5.769800544E-1,-1.216516420E-1
2.070192375E0,2.808478475E-1,5.745784044E-1,-9.751674533E-2
2.080118375E0,2.944514155E-1,5.478352308E-1,-5.946597084E-2
2.090044375E0,3.086263537E-1,4.881204665E-1,-2.182538435E-2
2.099970375E0,3.117157519E-1,3.953839242E-1,6.448410451E-3
2.109896375E0,3.123035133E-1,2.724233866E-1,1.591594890E-2
2.119821375E0,3.337439895E-1,1.310239285E-1,4.557017237E-3
2.129747375E0,3.547081351E-1,-3.467182815E-2,-4.642873071E-3
2.139673375E0,3.724026084E-1,-2.053770274E-1,-3.148863092E-3
2.149599375E0,3.830083907E-1,-3.584744334E-1,-9.547373280E-3
2.159525375E0,4.198178947E-1,-5.165030956E-1,-1.088069379E-2
2.169450375E0,4.437232316E-1,-6.598384380E-1,-5.156494677E-3
2.179376375E0,4.724699259E-1,-7.690910697E-1,1.127894595E-2
2.189302375E0,4.976165593E-1,-8.356032372E-1,3.554886952E-2
2.199228375E0,4.878904223E-1,-8.486908078E-1,5.640381575E-2
2.209154375E0,4.746182859E-1,-8.366477489E-1,6.015514582E-2
2.219080375E0,4.769785106E-1,-8.354217410E-1,3.714587539E-2
2.229005375E0,4.920389652E-1,-8.464155197E-1,-6.785362028E-3
2.238931375E0,5.033488870E-1,-8.518831730E-1,-6.316512078E-2
2.248857375E0,5.102371573E-1,-8.080984354E-1,-9.380213171E-2
2.258783375E0,5.107691884E-1,-6.937342882E-1,-9.138642997E-2
2.268709375E0,5.088874102E-1,-5.260443687E-1,-6.066660210E-2
2.278634375E0,4.988455176E-1,-3.369619250E-1,-1.616052724E-2
2.288560375E0,4.920121133E-1,-1.810620427E-1,3.079393320E-2
2.298486375E0,5.023173690E-1,-8.655565977E-2,7.235749811E-2
2.308412375E0,4.996177554E-1,-5.277532339E-2,1.017547995E-1
2.318338375E0,4.928832352E-1,-7.151168585E-2,1.172781214E-1
2.328264375E0,4.900070429E-1,-1.420138180E-1,1.167289838E-1
2.338189375E0,4.807837605E-1,-2.683619261E-1,9.959735721E-2
2.348115375E0,4.593205750E-1,-4.175996184E-1,8.430042863E-2
2.358041375E0,4.327566624E-1,-5.553596616E-1,6.855257601E-2
2.367967375E0,4.194573760E-1,-6.657565236E-1,6.132715195E-2
2.377893375E0,4.146387279E-1,-7.395324111E-1,4.228673503E-2
2.387819375E0,4.090591371E-1,-7.572134137E-1,2.220996097E-2
2.397744375E0,4.173532426E-1,-7.080600858E-1,-1.083528250E-2
2.407670375E0,4.303310812E-1,-5.958336592E-1,-4.147441685E-2
2.417596375E0,4.410178363E-1,-4.120770693E-1,-7.503524423E-2
2.427522375E0,4.527384341E-1,-1.895220429E-1,-1.006844193E-1
2.437448375E0,4.622455835E-1,5.535443872E-2,-1.195926666E-1
2.447373375E0,4.589946568E-1,3.083608747E-1,-1.314940751E-1
2.457299375E0,4.506531656E-1,5.464629531E-1,-1.328396946E-1
2.467225375E0,4.288911521E-1,7.432662845E-1,-1.356828958E-1
2.477151375E0,3.984627128E-1,8.816188574E-1,-1.455241591E-1
2.487077375E0,3.503684103E-1,9.663459659E-1,-1.565879881E-1
2.497003375E0,3.008195162E-1,9.854189754E-1,-1.769832522E-1
2.506928375E0,2.502226532E-1,9.561153650E-1,-1.865107119E-1
2.516854375E0,2.066489011E-1,9.026957154E-1,-1.927122772E-1
2.526780375E0,1.643499136E-1,8.324124813E-1,-1.886227280E-1
2.536706375E0,1.264317334E-1,7.729980350E-1,-1.711410731E-1
2.546632375E0,8.561053127E-2,7.389156818E-1,-1.418992877E-1
2.556558375E0,4.969943687E-2,7.144534588E-1,-1.053818464E-1
2.566483375E0,1.948906854E-2,6.735414267E-1,-8.027143776E-2
2.576409375E0,2.334151184E-3,5.948917270E-1,-7.052303106E-2
2.586335375E0,-1.445228606E-2,4.980126023E-1,-6.548459083E-2
2.596261375E0,-2.777408436E-2,3.757457435E-1,-6.657843292E-2
2.606187375E0,-4.296502471E-2,2.483153641E-1,-7.666728646E-2
2.616112375E0,-5.946575105E-2,1.103855371E-1,-8.597312868E-2
2.626038375E0,-7.991936058E-2,-2.679495327E-2,-8.888689429E-2
2.635964375E0,-1.215446889E-1,-1.620503962E-1,-7.633585483E-2
2.645890375E0,-1.673063189E-1,-2.926033437E-1,-5.582552031E-2
2.655816375E0,-2.085570246E-1,-4.317612648E-1,-2.818727307E-2
2.665742375E0,-2.405698150E-1,-5.703088045E-1,3.005533013E-3
2.675667375E0,-2.695181668E-1,-7.101266980E-1,3.222885728E-2
2.685593375E0,-2.893576622E-1,-8.225113153E-1,7.013176382E-2
2.695519375E0,-3.160941601E-1,-9.027613997E-1,1.063109860E-1
2.705445375E0,-3.464198411E-1,-9.614542723E-1,1.335058510E-1
2.715371375E0,-3.675810099E-1,-9.792931676E-1,1.495778263E-1
2.725297375E0,-3.893347681E-1,-9.531382918E-1,1.563808769E-1
2.735222375E0,-4.066249132E-1,-8.980911970E-1,1.560411751E-1
2.745148375E0,-4.100318849E-1,-8.441427350E-1,1.550326347E-1
2.755074375E0,-4.075759947E-1,-8.009423018E-1,1.447732449E-1
2.765000375E0,-3.856688142E-1,-7.621158361E-1,1.289681792E-1
2.774926375E0,-3.577132821E-1,-7.333696485E-1,1.057440490E-1
2.784851375E0,-3.339150250E-1,-7.078965306E-1,6.691250205E-2
2.794777375E0,-3.083715737E-1,-6.670823097E-1,1.675184444E-2
2.804703375E0,-2.735291719E-1,-5.981565118E-1,-3.516807780E-2
2.814629375E0,-2.369384021E-1,-4.857690930E-1,-8.408192545E-2
2.824555375E0,-2.021383345E-1,-3.227106631E-1,-1.299271882E-1
2.834481375E0,-1.595974118E-1,-1.292368621E-1,-1.680911481E-1
2.844406375E0,-1.291582733E-1,8.807175606E-2,-2.073000669E-1
2.854332375E0,-9.342832863E-2,2.786908746E-1,-2.430512607E-1
2.864258375E0,-6.131033599E-2,4.187883437E-1,-2.866666317E-1
2.874184375E0,-3.040550090E-2,4.890277088E-1,-3.187104464E-1
2.884110375E0,1.078656293E-3,5.117950439E-1,-3.432120681E-1
2.894036375E0,2.198672481E-2,4.994597435E-1,-3.600271046E-1
2.903961375E0,3.864400089E-2,4.624724388E-1,-3.675329685E-1
2.913887375E0,4.908090830E-2,3.970253766E-1,-3.691235781E-1
2.923813375E0,5.152622238E-2,3.221535385E-1,-3.681547046E-1
2.933739375E0,5.274952948E-2,2.345362902E-1,-3.596632779E-1
2.943665375E0,5.281211063E-2,1.395866126E-1,-3.453077674E-1
2.953591375E0,4.576984048E-2,5.163554847E-2,-3.191758990E-1
2.963516375E0,4.258896038E-2,-3.111738525E-2,-2.904457152E-1
2.973442375E0,3.577564657E-2,-1.074646488E-1,-2.551040351E-1
2.983368375E0,2.779814415E-2,-1.806962639E-1,-2.207934707E-1
2.993294375E0,1.893845014E-2,-2.465964854E-1,-1.853950024E-1
3.003220375E0,7.703373674E-3,-2.805951834E-1,-1.535124332E-1
3.013145375E0,-1.119763497E-2,-2.911462188E-1,-1.118522286E-1
3.023071375E0,-2.911671437E-2,-2.752964199E-1,-7.320682704E-2
3.032997375E0,-4.683097452E-2,-2.415274233E-1,-3.422972187E-2
3.042923375E0,-6.765023619E-2,-2.248427272E-1,-7.407357916E-4
3.052849375E0,-8.031938970E-2,-2.417958379E-1,1.908468641E-2
3.062775375E0,-8.650964499E-2,-3.062270284E-1,3.330277279E-2
3.072700375E0,-8.110534400E-2,-3.835366666E-1,4.594431072E-2
3.082626375E0,-7.396914065E-2,-4.647494853E-1,7.281188667E-2
3.092552375E0,-6.768357009E-2,-5.258313417E-1,1.101242006E-1
3.102478375E0,-7.311855257E-2,-5.533543229E-1,1.436693817E-1
3.112404375E0,-9.258293360E-2,-5.719997287E-1,1.748911440E-1
3.122330375E0,-1.168616414E-1,-6.030031443E-1,1.959072053E-1
3.132255375E0,-1.347559541E-1,-6.478087306E-1,2.173352689E-1
3.142181375E0,-1.608014107E-1,-7.175949812E-1,2.474774718E-1
3.152107375E0,-1.932327598E-1,-8.241837025E-1,2.910455763E-1
3.162033375E0,-2.301287353E-1,-9.473370910E-1,3.411180675E-1
3.171959375E0,-2.619563937E-1,-1.053157806E0,3.829796314E-1
3.181885375E0,-2.804267704E-1,-1.152484059E0,4.060660303E-1
3.191810375E0,-2.842152119E-1,-1.232282043E0,4.043765366E-1
3.201736375E0,-2.734845281E-1,-1.278313756E0,3.784378767E-1
3.211662375E0,-2.622078955E-1,-1.290857434E0,3.215362430E-1
3.221588375E0,-2.415436506E-1,-1.252266884E0,2.517800629E-1
3.231514375E0,-2.172017395E-1,-1.170017600E0,1.750703901E-1
3.241440375E0,-1.869687289E-1,-1.063886285E0,1.055621579E-1
3.251365375E0,-1.542746723E-1,-9.407624006E-1,4.939464107E-2
