"Time (s)","X (rad/s)","Y (rad/s)","Z (rad/s)"
1.392504165E-2,-3.621020168E-2,-1.292424798E-1,-1.116931289E-1
3.392604168E-2,7.829674520E-3,-8.933375031E-2,-9.768453985E-2
5.392804166E-2,3.541072458E-2,-2.366754785E-2,-8.066485077E-2
7.392904168E-2,5.342752486E-2,3.040839173E-2,-6.662643701E-2
9.393004165E-2,7.022778690E-2,3.582675755E-2,-6.226147711E-2
1.139320417E-1,8.964391798E-2,9.472169913E-4,-6.269597262E-2
1.339330417E-1,1.087400690E-1,-3.301015496E-2,-6.595615298E-2
1.539340417E-1,1.165567562E-1,-2.073251083E-2,-6.004293635E-2
1.739350417E-1,1.121797711E-1,2.452405915E-2,-4.740444198E-2
1.939370417E-1,1.131795049E-1,6.690845639E-2,-4.438672215E-2
2.139380417E-1,1.194856688E-1,7.677628845E-2,-4.719278961E-2
2.339390417E-1,1.179116964E-1,7.210890949E-2,-5.800643191E-2
2.539410417E-1,1.111310944E-1,4.978900403E-2,-7.531841844E-2
2.739420417E-1,9.659655392E-2,3.058943525E-2,-8.535043895E-2
2.939430417E-1,8.329751343E-2,2.976726554E-2,-8.630849421E-2
3.139450417E-1,7.165472955E-2,3.297432140E-2,-8.037532866E-2
3.339460417E-1,5.669789389E-2,4.838688672E-2,-7.340385765E-2
3.539470417E-1,3.507969156E-2,5.862652510E-2,-6.658232212E-2
3.739490417E-1,1.573500223E-2,5.467588827E-2,-7.061670721E-2
3.939500417E-1,3.463410307E-3,3.683372214E-2,-7.669548690E-2
4.139510417E-1,-1.582481712E-2,2.835893631E-2,-7.415926456E-2
4.339530417E-1,-3.634686396E-2,3.720491379E-2,-5.931048840E-2
4.539540417E-1,-6.281338632E-2,5.153072625E-2,-3.783478215E-2
4.739550417E-1,-9.817697108E-2,4.990755767E-2,-1.495151129E-2
4.939570417E-1,-1.382488161E-1,2.449618839E-2,-3.982589114E-3
5.139580417E-1,-1.692412794E-1,-8.114200085E-3,-6.029317738E-4
5.339590417E-1,-1.838955730E-1,-2.101181075E-2,1.444197167E-2
5.539610417E-1,-1.912334114E-1,-4.075301811E-3,4.356654361E-2
5.739620417E-1,-2.079641968E-1,2.321408316E-2,7.044337690E-2
5.939630417E-1,-2.302479148E-1,3.776380792E-2,1.081885323E-1
6.139650417E-1,-2.570904791E-1,2.124774270E-2,1.485876888E-1
6.339660417E-1,-2.815945446E-1,-2.294773422E-2,1.859711558E-1
6.539669167E-1,-3.103760779E-1,-9.809884429E-2,2.167964131E-1
6.739679167E-1,-3.491324782E-1,-1.772523224E-1,2.641108036E-1
6.939699167E-1,-3.956619501E-1,-2.643765211E-1,3.264815211E-1
7.139709167E-1,-4.603470862E-1,-3.564739823E-1,3.612897396E-1
7.339719167E-1,-5.317614079E-1,-4.288099110E-1,3.481734097E-1
7.539739167E-1,-6.220127940E-1,-4.685522318E-1,3.051043153E-1
7.739749167E-1,-7.171901464E-1,-4.320100248E-1,2.532406449E-1
7.939759167E-1,-7.934492230E-1,-3.118456900E-1,2.069226503E-1
8.139779167E-1,-8.393234611E-1,-1.258640289E-1,1.694819182E-1
8.339789167E-1,-8.529663682E-1,5.445743725E-2,1.027079895E-1
8.539799167E-1,-8.396774530E-1,1.865941435E-1,-2.771359403E-3
8.739819167E-1,-7.849604487E-1,2.456191182E-1,-1.006928682E-1
8.939829167E-1,-6.894397736E-1,2.684828341E-1,-1.599568427E-1
9.139839167E-1,-5.329231024E-1,2.206143737E-1,-1.877982765E-1
9.339859167E-1,-3.745939434E-1,6.610821187E-2,-2.400701940E-1
9.539869167E-1,-2.343942225E-1,-7.993096858E-2,-3.369191289E-1
9.739879167E-1,-1.304934025E-1,-2.136970684E-2,-4.117676318E-1
9.939899167E-1,-1.281179674E-2,2.236151546E-1,-4.649829566E-1
1.013990917E0,1.184812263E-1,4.688391685E-1,-5.662064552E-1
1.033991917E0,2.483766973E-1,6.313050985E-1,-7.433095574E-1
1.053993917E0,3.641307056E-1,9.415730834E-1,-9.093905091E-1
1.073994917E0,5.436062217E-1,1.505673289E0,-9.945629835E-1
1.093995917E0,9.054619074E-1,2.152806759E0,-1.089279294E0
1.113997917E0,1.489159703E0,2.856300116E0,-1.232321143E0
1.133998917E0,2.083124161E0,3.700586796E0,-1.187009692E0
1.153999917E0,2.666839123E0,4.547050476E0,-7.584212422E-1
1.174001917E0,3.372818232E0,4.862830639E0,-1.960507184E-1
1.194002917E0,4.129098892E0,4.411087036E0,2.806128860E-1
1.214003917E0,4.560968876E0,4.119120598E0,7.819522619E-1
1.234005917E0,4.370130062E0,4.354727745E0,1.543250799E0
1.254006917E0,3.830384493E0,4.323997498E0,2.163738966E0
1.274007917E0,3.053560972E0,3.841004610E0,2.108215570E0
1.294009917E0,1.748084426E0,3.177229881E0,1.421758533E0
1.314010917E0,8.171998709E-2,2.399517298E0,2.291572541E-1
1.334011917E0,-4.637787819E0,3.220301390E0,-2.032848075E-2
1.354013917E0,-6.806044579E0,9.736560583E-1,7.232936025E-1
1.374014917E0,2.163582087E0,-7.934963226E0,3.160949349E-1
1.394015917E0,6.050340652E0,-5.396876335E0,-2.539189577E0
1.414017917E0,2.608530283E0,-5.048847675E0,-2.081757545E0
1.434018917E0,-7.350648046E-1,1.448451877E0,-1.493444085E0
1.454019917E0,-1.418704867E0,2.764671564E0,-1.915508986E0
1.474021917E0,-6.369475722E-1,2.129806519E0,-4.693043530E-1
1.494022917E0,4.667115808E-1,-3.168132529E-2,-5.048739314E-1
1.514023917E0,-3.729452193E-2,-1.840886235E0,-1.104012966E0
1.534025917E0,-6.016943455E-1,-2.845295906E0,-1.185850382E0
1.554026917E0,-4.098912776E-1,-3.609282255E0,-6.237711906E-1
1.574027917E0,-1.280703098E-1,-3.893106937E0,6.947924197E-2
1.594029917E0,-1.685249954E-1,-4.167012215E0,2.680074871E-1
1.614030917E0,-3.309721947E-1,-3.911265850E0,3.152883649E-1
1.634031917E0,-4.756308496E-1,-3.399720430E0,6.637241244E-1
1.654034417E0,-4.463185966E-1,-2.818110704E0,8.499367833E-1
1.674035417E0,-4.877323210E-1,-2.471648693E0,7.498714328E-1
1.694036417E0,-6.233273745E-1,-2.126858234E0,6.458998919E-1
1.714038417E0,-8.394155502E-1,-1.782280564E0,7.870335579E-1
1.734039417E0,-9.207953811E-1,-1.646872878E0,1.034818769E0
1.754040417E0,-8.723719120E-1,-1.836016655E0,1.078577399E0
1.774042417E0,-7.723691463E-1,-2.174541473E0,9.841445088E-1
1.794043417E0,-7.129167318E-1,-2.475150585E0,8.709657788E-1
1.814044417E0,-6.528672576E-1,-2.605993986E0,8.767123222E-1
1.834046417E0,-5.632878542E-1,-2.488383532E0,9.900284410E-1
1.854047417E0,-4.124740064E-1,-2.248999834E0,1.086149454E0
1.874049417E0,-2.626408339E-1,-2.022575378E0,1.077285409E0
1.894050417E0,-1.550691873E-1,-1.754767537E0,9.820218086E-1
1.914051417E0,-9.871670604E-2,-1.364288449E0,8.850423098E-1
1.934053417E0,-4.424232617E-2,-8.672965169E-1,8.120980263E-1
1.954054417E0,-2.788834646E-2,-3.484638333E-1,7.779849768E-1
1.974055417E0,-4.706658050E-2,3.562304378E-2,7.655960917E-1
1.994057417E0,-7.361188531E-2,2.098463476E-1,7.277415991E-1
2.014058417E0,-9.842509031E-2,2.103057504E-1,6.620118618E-1
2.034059417E0,-1.285382807E-1,1.580088139E-1,5.865789652E-1
2.054061417E0,-1.536414921E-1,1.324201673E-1,5.399757624E-1
2.074062417E0,-1.759079546E-1,1.086541936E-1,5.408543944E-1
2.094063417E0,-2.029113322E-1,1.970810443E-2,5.175758004E-1
2.114065417E0,-2.125341743E-1,-1.384342760E-1,4.562404454E-1
2.134066417E0,-2.054400295E-1,-2.777375579E-1,3.763121068E-1
2.154068417E0,-1.990798265E-1,-3.364145458E-1,3.279244900E-1
2.174069417E0,-1.977035552E-1,-3.219206929E-1,2.943414152E-1
2.194070417E0,-1.830699742E-1,-2.682332993E-1,2.515808344E-1
2.214072417E0,-1.649983674E-1,-1.979464293E-1,2.013541907E-1
2.234073417E0,-1.514383405E-1,-1.112391502E-1,1.514389962E-1
2.254074417E0,-1.439482570E-1,2.113218419E-3,1.297793984E-1
2.274076417E0,-1.308257878E-1,1.358590573E-1,1.358828992E-1
2.294077417E0,-1.338508129E-1,2.412989289E-1,1.532536745E-1
2.314078417E0,-1.515526175E-1,2.626943588E-1,1.463946849E-1
2.334080417E0,-1.861672252E-1,2.171773016E-1,1.173374802E-1
2.354081417E0,-2.061519474E-1,1.618907303E-1,7.803121954E-2
2.374083417E0,-2.072946578E-1,1.878019273E-1,5.591285601E-2
2.394084417E0,-2.255672216E-1,2.675816417E-1,7.303388417E-2
2.414085417E0,-2.353691906E-1,2.851457000E-1,9.432818741E-2
2.434087417E0,-2.363111377E-1,2.178210467E-1,8.937808126E-2
2.454088417E0,-2.431656569E-1,1.351511925E-1,7.298567891E-2
2.474089417E0,-2.504600585E-1,1.154799610E-1,5.848731473E-2
2.494091417E0,-2.756277323E-1,1.716823280E-1,5.436758325E-2
2.514092417E0,-2.648216486E-1,2.071906328E-1,4.269917309E-2
2.534094417E0,-2.302748561E-1,1.793533415E-1,2.194877155E-2
2.554095417E0,-1.938382238E-1,1.485043615E-1,4.663575441E-3
2.574096417E0,-1.719404608E-1,1.533693969E-1,-5.326049868E-3
2.594098417E0,-1.816018820E-1,2.280739397E-1,-1.759082265E-2
2.614099417E0,-1.728214175E-1,3.146669865E-1,-2.852206491E-2
2.634101417E0,-1.506440490E-1,3.567772210E-1,-2.548524924E-2
2.654101833E0,-1.338993460E-1,3.559820652E-1,-2.555751801E-2
2.674102833E0,-1.388826668E-1,3.363001645E-1,-5.359166861E-2
2.694104833E0,-1.547908038E-1,2.961958051E-1,-8.967820555E-2
2.714105833E0,-1.718331575E-1,2.561672926E-1,-1.013532728E-1
2.734106833E0,-1.917826533E-1,2.486669570E-1,-8.685141057E-2
2.754108833E0,-2.162997425E-1,2.559212744E-1,-5.765952170E-2
2.774109833E0,-2.495327592E-1,2.626421750E-1,-4.790454358E-2
2.794111833E0,-2.696699798E-1,2.698518038E-1,-3.467567638E-2
2.814112833E0,-2.799210548E-1,2.703814805E-1,-1.411938388E-2
2.834113833E0,-2.979500592E-1,2.692069113E-1,-1.506835921E-3
2.854115833E0,-3.165451586E-1,2.898817062E-1,-1.031025779E-2
2.874116833E0,-3.469462097E-1,3.312848508E-1,-3.102028975E-3
2.894118833E0,-3.718741834E-1,3.719933927E-1,1.909009181E-2
2.914119833E0,-3.936055899E-1,4.248164296E-1,5.684098974E-2
2.934120833E0,-4.240798354E-1,4.875513613E-1,1.049755812E-1
2.954122833E0,-4.577477872E-1,5.243492126E-1,1.429313719E-1
2.974123833E0,-5.148405433E-1,5.278928280E-1,1.603470445E-1
2.994125833E0,-5.691425204E-1,5.290760994E-1,1.674163640E-1
3.014126833E0,-5.991611481E-1,5.198135972E-1,1.697856635E-1
3.034127833E0,-5.979321003E-1,4.865880907E-1,1.497201025E-1
3.054129833E0,-6.047791243E-1,4.404071271E-1,8.713471889E-2
3.074130833E0,-6.089946032E-1,4.028255939E-1,-1.248359773E-2
3.094132833E0,-5.897593498E-1,4.352252483E-1,-1.249919534E-1
3.114133833E0,-5.268419981E-1,6.092512608E-1,-2.350638807E-1
3.134134833E0,-4.358715713E-1,9.050212502E-1,-3.426673412E-1
3.154136833E0,-3.010956049E-1,1.272369862E0,-4.546056986E-1
3.174137833E0,-5.452867597E-2,1.752868414E0,-5.402241945E-1
3.194139833E0,3.284699619E-1,2.167349577E0,-6.149035096E-1
3.214140833E0,1.103268743E0,2.353350163E0,-7.722895741E-1
3.234141833E0,2.203381062E0,2.856510162E0,-9.354304671E-1
3.254143833E0,3.170598745E0,3.866010904E0,-8.859116435E-1
3.274144833E0,4.221886635E0,4.499836922E0,-5.611377358E-1
3.294146833E0,5.247673035E0,4.529138088E0,-1.391280890E-1
3.314147833E0,6.023933887E0,4.622446060E0,3.649373353E-1
3.334148833E0,6.209362507E0,5.135063648E0,1.073781013E0
3.354150833E0,5.388591766E0,5.985432625E0,1.972381592E0
3.374151833E0,3.800652504E0,6.779435635E0,2.479977608E0
3.394153833E0,2.078371763E0,6.682005405E0,1.960901976E0
3.414154833E0,3.849138021E-1,4.907028675E0,3.053220212E-1
3.434156833E0,-1.593923211E0,2.050895929E0,-2.348701000E0
3.454157833E0,-1.338137054E1,1.131562471E0,2.652334690E0
3.474158833E0,-1.529041529E0,-3.132268190E0,-2.533924580E0
3.494160833E0,5.023231983E0,-5.511481762E0,8.712465167E-1
3.514161833E0,6.173052311E0,-6.361752510E0,1.111798525E0
3.534163833E0,1.315005779E0,-3.803871393E0,1.546929002E0
3.554164833E0,-6.588435173E-1,-5.338160992E-1,1.370747946E-2
3.574166833E0,-1.259499311E0,-1.322702408E0,-3.416407347E0
3.594167833E0,-7.359444499E-1,-8.325037956E-1,-2.569606304E0
3.614168833E0,-2.314370424E-1,-1.857544661E0,-1.172177076E0
3.634170833E0,-1.206139088E0,-1.816554427E0,-9.354682565E-1
3.654171417E0,-1.970801592E0,-6.315653920E-1,-1.224488974E0
3.674173417E0,-2.049960613E0,4.084942341E-1,-7.798904777E-1
3.694174417E0,-1.871535778E0,1.035753727E0,6.453701109E-2
3.714175417E0,-1.797917485E0,5.470927954E-1,2.899039537E-3
3.734177417E0,-2.025807858E0,-4.453275800E-1,-6.306961775E-1
3.754178417E0,-2.291317701E0,-1.170380235E0,-8.134245276E-1
3.774180417E0,-2.212370634E0,-1.699682713E0,-4.550132751E-1
3.794181417E0,-1.954483271E0,-2.132918835E0,-1.732118279E-1
3.814183417E0,-1.757357836E0,-2.623534203E0,-7.828655839E-2
3.834184417E0,-1.720340133E0,-2.953279257E0,-1.768447272E-2
3.854186417E0,-1.686534524E0,-2.900202274E0,2.580889463E-1
3.874187417E0,-1.566592932E0,-2.604995966E0,6.441284418E-1
3.894188417E0,-1.402533174E0,-2.235754251E0,8.957722187E-1
3.914190417E0,-1.276418328E0,-1.891594410E0,1.011622787E0
3.934191417E0,-1.177268147E0,-1.645479679E0,1.102923989E0
3.954193417E0,-1.006382346E0,-1.492255092E0,1.186973929E0
3.974194417E0,-7.701786757E-1,-1.405346632E0,1.158761501E0
3.994196417E0,-5.660707355E-1,-1.227017522E0,1.018488646E0
4.014197417E0,-4.197775126E-1,-9.205222726E-1,8.375264406E-1
4.034198417E0,-3.259684145E-1,-4.868292809E-1,7.205610275E-1
4.054200417E0,-2.948120832E-1,5.135734007E-2,6.854653358E-1
4.074201417E0,-2.741010189E-1,4.896980226E-1,7.040196061E-1
4.094203417E0,-2.695480585E-1,7.088329196E-1,6.697482467E-1
4.114204417E0,-2.749185562E-1,7.565486431E-1,5.757331252E-1
4.134206417E0,-2.707846165E-1,6.932987571E-1,4.726174176E-1
4.154207417E0,-2.790480852E-1,5.815261006E-1,3.821928501E-1
4.174209417E0,-2.906938195E-1,4.531737864E-1,3.098629117E-1
4.194210417E0,-2.906951606E-1,2.535538375E-1,2.369915843E-1
4.214211417E0,-2.725220025E-1,-8.912630379E-3,1.219327003E-1
4.234213417E0,-2.524183393E-1,-2.514613867E-1,-1.189440023E-2
4.254214417E0,-2.303496599E-1,-3.579868376E-1,-9.512033314E-2
4.274216417E0,-2.058314383E-1,-2.851174772E-1,-9.768022597E-2
4.294217417E0,-1.725914478E-1,-8.264291286E-2,-3.737815470E-2
4.314219417E0,-1.318589598E-1,6.982426345E-2,1.038880460E-2
4.334220417E0,-7.544701546E-2,1.049039215E-1,1.180933136E-2
4.354222417E0,-2.061440982E-2,6.078434736E-2,-3.590478003E-2
4.374223417E0,1.241406519E-2,2.585810982E-2,-9.794384986E-2
4.394225417E0,3.560942411E-2,6.526660919E-2,-1.236862615E-1
4.414226417E0,4.123052955E-2,1.448435932E-1,-8.784919977E-2
4.434227417E0,4.939238355E-2,1.702096909E-1,-4.735119268E-2
4.454229417E0,5.996476859E-2,9.333073348E-2,-5.190294608E-2
4.474230417E0,8.136301488E-2,-4.963465035E-2,-9.754440933E-2
4.494232417E0,9.728207439E-2,-1.758630872E-1,-1.389310807E-1
4.514233417E0,9.311684966E-2,-1.942057610E-1,-1.436641514E-1
4.534235417E0,7.570221275E-2,-1.061300710E-1,-1.025120914E-1
4.554236417E0,6.239942461E-2,2.213935181E-2,-3.423665836E-2
4.574238417E0,6.894607842E-2,7.663883269E-2,-1.868749969E-3
4.594239417E0,8.139820397E-2,4.955922812E-2,-2.210010402E-2
4.614241417E0,8.742403984E-2,-5.878887139E-3,-6.245006621E-2
4.634242417E0,7.996719331E-2,-2.224345133E-2,-7.066132873E-2
4.654244542E0,6.700747460E-2,-6.241263822E-3,-6.638151407E-2
4.674245542E0,6.453551352E-2,1.257737912E-2,-6.238342822E-2
4.694246542E0,8.292015642E-2,-1.092175022E-3,-5.677972361E-2
4.714248542E0,1.012892649E-1,-3.325988725E-2,-7.148770988E-2
4.734249542E0,1.028195322E-1,-6.062807143E-2,-9.370394796E-2
4.754251542E0,9.998294711E-2,-5.387451127E-2,-9.952209145E-2
4.774252542E0,8.141329139E-2,-1.104539260E-2,-7.715225220E-2
4.794254542E0,7.048686594E-2,3.514497727E-2,-5.171139911E-2
4.814255542E0,4.948303849E-2,5.646432936E-2,-2.615662478E-2
4.834257542E0,4.235686362E-2,4.990512505E-2,-1.918929070E-2
4.854258542E0,2.358803898E-2,2.409938537E-2,-1.942406408E-2
4.874260542E0,7.099621929E-3,2.530691586E-2,-1.715040393E-2
4.894261542E0,-1.465394534E-2,3.803999349E-2,1.076419605E-3
4.914263542E0,-2.682164125E-2,5.349732935E-2,2.848425321E-2
4.934264542E0,-4.698229954E-2,4.881472141E-2,4.589712247E-2
4.954266542E0,-7.561787218E-2,3.709417209E-2,5.308644101E-2
4.974267542E0,-1.063880995E-1,2.270242572E-2,4.475489259E-2
4.994269542E0,-1.335446239E-1,1.489936374E-2,4.407019541E-2
5.014270542E0,-1.544845104E-1,2.361383662E-2,6.046266109E-2
5.034272542E0,-1.750193089E-1,4.490940645E-2,8.031762391E-2
5.054273542E0,-1.951931417E-1,5.518550426E-2,9.482273459E-2
5.074275542E0,-2.218017876E-1,5.480542034E-2,9.601817280E-2
5.094276542E0,-2.490517497E-1,4.375218228E-2,7.913047075E-2
5.114278542E0,-2.671349049E-1,5.961170793E-2,6.698163599E-2
5.134279542E0,-2.648303211E-1,8.213331550E-2,7.029567659E-2
5.154281542E0,-2.603790760E-1,1.113507226E-1,8.551886678E-2
5.174282542E0,-2.369871736E-1,1.244165599E-1,1.069924384E-1
5.194283542E0,-2.173782736E-1,7.476927340E-2,1.143058315E-1
5.214285542E0,-2.207978219E-1,6.681674160E-3,1.021457538E-1
5.234286542E0,-2.282078415E-1,-2.876172215E-2,8.704894036E-2
5.254288542E0,-2.262756675E-1,-6.414607167E-3,9.888301790E-2
5.274289542E0,-2.168070972E-1,5.170099810E-2,1.301945150E-1
5.294291542E0,-1.949422807E-1,8.349648118E-2,1.452171504E-1
5.314292542E0,-1.791912466E-1,5.607321858E-2,1.228960976E-1
5.334294542E0,-1.624342054E-1,7.511116564E-3,8.454456925E-2
5.354296542E0,-1.567858905E-1,3.744181246E-3,6.084879115E-2
5.374297542E0,-1.568716168E-1,5.428895354E-2,5.803513154E-2
5.394298542E0,-1.593366861E-1,1.047615036E-1,5.654488504E-2
5.414300542E0,-1.570250839E-1,1.199147850E-1,4.290101305E-2
5.434301542E0,-1.627982110E-1,1.052035317E-1,1.102341618E-2
5.454303542E0,-1.756373942E-1,9.442061186E-2,-2.533237264E-2
5.474304542E0,-1.843046099E-1,9.361521155E-2,-5.464211479E-2
5.494306542E0,-1.987626851E-1,1.115897670E-1,-8.066481352E-2
5.514308542E0,-2.059526294E-1,1.229659617E-1,-1.024766341E-1
5.534309542E0,-1.893401742E-1,1.387738734E-1,-1.333096176E-1
5.554311542E0,-1.673536003E-1,1.576478779E-1,-1.795888096E-1
5.574312542E0,-1.562746316E-1,1.926078498E-1,-2.290126532E-1
5.594314542E0,-1.307783276E-1,2.247929126E-1,-2.505334318E-1
5.614315542E0,-7.483711094E-2,2.216630876E-1,-2.749876082E-1
5.634317542E0,-2.109101973E-2,1.690165401E-1,-3.192471564E-1
5.654319292E0,1.065462735E-2,1.492472440E-1,-3.411932290E-1
5.674321292E0,8.582617342E-2,1.461586356E-1,-2.882212400E-1
5.694322292E0,1.783664376E-1,1.439652592E-1,-2.371656001E-1
5.714324292E0,2.072329819E-1,1.114311218E-1,-2.348372191E-1
5.734325292E0,2.431859374E-1,7.461481541E-2,-2.939026356E-1
5.754327292E0,3.385961056E-1,3.845449165E-2,-3.339102864E-1
5.774328292E0,4.623941779E-1,-1.446159091E-3,-4.664281011E-1
5.794330292E0,6.197906733E-1,-8.032321185E-2,-7.515498400E-1
5.814331292E0,7.976355553E-1,-5.341857299E-2,-1.050061226E0
5.834333292E0,1.051645756E0,2.762435973E-1,-1.166529059E0
5.854334292E0,1.499419808E0,7.969436646E-1,-1.166491866E0
5.874336292E0,2.110556602E0,1.260724545E0,-1.095696211E0
5.894337292E0,2.907157898E0,1.850748062E0,-8.803321719E-1
5.914339292E0,3.779310465E0,2.931879520E0,-5.112351179E-1
5.934341292E0,4.586066246E0,3.774580717E0,1.359680295E-1
5.954342292E0,5.195611000E0,3.886445999E0,1.251149774E0
5.974344292E0,5.864433289E0,3.680078745E0,2.010914087E0
5.994345292E0,5.682596207E0,3.824846983E0,2.665274858E0
6.014347292E0,4.677923679E0,4.025442600E0,3.356975317E0
6.034348292E0,3.179688692E0,3.759751797E0,3.272483587E0
6.054350292E0,1.954626083E0,3.269756794E0,2.047569990E0
6.074351292E0,5.068855286E-1,3.768156290E0,-4.324238598E-1
6.094353292E0,-6.579672813E0,6.135160923E0,1.585203409E0
6.114354292E0,-2.138213873E0,1.142251492E0,-1.892055631E0
6.134356292E0,1.607689023E0,-4.923680305E0,-2.422096014E0
6.154358292E0,5.741071701E0,-6.580772400E0,7.491862178E-1
6.174359292E0,1.534636378E0,-2.398012161E0,1.973074079E0
6.194361292E0,-7.872823477E-1,-8.845493793E-1,1.563674092E0
6.214362292E0,-1.585435748E0,-1.505811572E0,-2.562920332E0
6.234364292E0,-1.479112267E0,-1.259577990E0,-2.557915449E0
6.254365292E0,-8.610621095E-1,-2.962781191E0,-1.103895187E0
6.274367292E0,-1.126741171E0,-3.426274300E0,-3.162975907E-1
6.294369292E0,-2.006027460E0,-3.084318161E0,-3.820267320E-1
6.314370292E0,-2.129541874E0,-2.937857628E0,-4.560784400E-1
6.334372292E0,-1.968456149E0,-2.490419149E0,-3.423928097E-2
6.354373292E0,-1.707422137E0,-2.388922930E0,2.114967853E-1
6.374375292E0,-1.612931848E0,-2.180427074E0,1.337452084E-1
6.394376292E0,-1.625423789E0,-1.853628397E0,1.813739985E-1
6.414378292E0,-1.564353585E0,-1.409475684E0,2.682772577E-1
6.434380292E0,-1.364059329E0,-1.194722056E0,3.755217791E-1
6.454381292E0,-1.190688968E0,-1.125522256E0,4.281575084E-1
6.474383292E0,-1.066644311E0,-1.189157009E0,4.643658400E-1
6.494384292E0,-9.324471951E-1,-1.236749768E0,4.767810106E-1
6.514386292E0,-8.301656842E-1,-1.179913759E0,4.857133627E-1
6.534387292E0,-7.630839944E-1,-1.027921557E0,5.502794981E-1
6.554389292E0,-7.116420269E-1,-8.909406066E-1,6.514331698E-1
6.574391292E0,-6.684253812E-1,-9.149984717E-1,6.747646928E-1
6.594392292E0,-6.080126762E-1,-1.015027285E0,5.540103316E-1
6.614394292E0,-5.039122105E-1,-1.074963808E0,4.135363996E-1
6.634395292E0,-4.062345028E-1,-9.735808372E-1,3.193454146E-1
