"Time (s)","X (rad/s)","Y (rad/s)","Z (rad/s)"
3.719208355E-3,-3.932175636E-1,1.944596618E-1,-2.972291410E-1
2.357120835E-2,-2.684446871E-1,3.970583901E-2,-7.636734247E-1
4.342420836E-2,-2.240785770E-2,-3.059918284E-1,-9.655569196E-1
6.327620836E-2,5.262422562E-1,-9.261141419E-1,-5.481242537E-1
8.312820835E-2,1.101415873E0,-1.516802430E0,-4.872199148E-2
1.029802084E-1,1.523758769E0,-1.800690055E0,2.004577816E-1
1.228322083E-1,1.766737700E0,-1.655013204E0,2.274962664E-1
1.426842083E-1,1.911643863E0,-1.264470339E0,-1.710325778E-1
1.625372084E-1,1.941229701E0,-7.855136395E-1,-5.350804329E-1
1.823892083E-1,1.883958578E0,-2.778025568E-1,-7.087764144E-1
2.022412083E-1,1.682240367E0,3.063886240E-2,-7.357602715E-1
2.220932083E-1,1.330924988E0,1.872404218E-1,-6.986842155E-1
2.419452083E-1,9.488278627E-1,4.261254072E-1,-5.586144328E-1
2.617972083E-1,6.302217841E-1,8.126792908E-1,-5.015312433E-1
2.816502083E-1,3.838337362E-1,1.183097601E0,-7.169014812E-1
3.015016250E-1,3.365884125E-1,1.392791033E0,-1.066308141E0
3.213536250E-1,4.447436333E-1,1.346690059E0,-1.490368724E0
3.412056250E-1,6.279615164E-1,1.039356947E0,-1.898352981E0
3.610576250E-1,8.059668541E-1,6.298638582E-1,-2.257814646E0
3.809096250E-1,9.155455828E-1,4.399521947E-1,-2.508246183E0
4.007626250E-1,9.495934844E-1,5.240278244E-1,-2.587196350E0
4.206146250E-1,9.125797749E-1,7.585405707E-1,-2.503269672E0
4.404666250E-1,8.312214613E-1,1.064047098E0,-2.273981810E0
4.603186250E-1,6.598680615E-1,1.379162908E0,-1.990995407E0
4.801706250E-1,5.162222981E-1,1.647128344E0,-1.552454472E0
5.000226250E-1,3.521504998E-1,2.002395153E0,-1.075618267E0
5.198746250E-1,1.620094627E-1,2.256380081E0,-6.072093248E-1
5.397276250E-1,-3.171255067E-2,2.138079405E0,-2.743287683E-1
5.595796250E-1,-2.216891348E-1,1.768037200E0,-1.364975125E-1
5.794316250E-1,-3.928430080E-1,1.275629401E0,-6.537140161E-2
5.992836250E-1,-5.203186274E-1,7.318246365E-1,9.961050749E-2
6.191356250E-1,-4.972843826E-1,2.342318892E-1,2.902979851E-1
6.389876250E-1,-4.014599919E-1,-1.191556156E-1,4.639230371E-1
6.588406250E-1,-1.968505234E-1,-4.470471442E-1,6.808558106E-1
6.786926250E-1,-1.380550675E-2,-8.133139610E-1,9.140906930E-1
6.985446250E-1,8.966265619E-2,-1.173894763E0,1.216071010E0
7.183966250E-1,1.826481074E-1,-1.344738483E0,1.579618454E0
7.382486250E-1,2.134736180E-1,-1.256801486E0,1.752735615E0
7.581006250E-1,1.431376040E-1,-9.688670635E-1,1.756615520E0
7.779526250E-1,7.934450358E-2,-5.574685931E-1,1.563542962E0
7.978056250E-1,9.692245722E-2,-2.000778466E-1,1.046638250E0
8.176576250E-1,2.317098230E-1,-1.243952960E-1,5.438989401E-1
8.375096250E-1,3.876191676E-1,-1.096421033E-1,-3.347536176E-2
8.573616250E-1,4.705007970E-1,-7.591416687E-2,-5.167957544E-1
8.772136250E-1,4.918719530E-1,-2.006249428E-1,-9.207041264E-1
8.970656250E-1,3.884272575E-1,-4.184572101E-1,-1.159082532E0
9.169186250E-1,2.566082478E-1,-3.552869260E-1,-1.260640383E0
9.367706250E-1,1.090935320E-1,-8.860881627E-2,-1.361699104E0
9.566226250E-1,-2.739773318E-2,1.047867388E-1,-1.368187904E0
9.764746250E-1,-1.764006913E-1,1.353194937E-2,-1.317829847E0
9.963266250E-1,-3.411300182E-1,-3.681769371E-1,-1.178138614E0
1.016178625E0,-5.020222068E-1,-8.926213980E-1,-1.010371685E0
1.036030625E0,-6.063150764E-1,-1.332321525E0,-8.482781053E-1
1.055883625E0,-5.669846535E-1,-1.246342301E0,-6.834864616E-1
1.075735625E0,-4.798413217E-1,-5.008537769E-1,-4.681914449E-1
1.095587625E0,-3.885525465E-1,2.049818933E-1,-3.067907393E-1
1.115439625E0,-3.266337514E-1,5.865711570E-1,-1.685774773E-1
1.135291625E0,-2.834686637E-1,5.167840719E-1,-1.904494017E-1
1.155143625E0,-2.782151401E-1,1.739887148E-1,-1.136450768E-1
1.174996625E0,-2.464596480E-1,-2.204450965E-1,9.182836115E-2
1.194848625E0,-1.388710290E-1,-5.264871716E-1,3.117128909E-1
1.214700625E0,3.928456083E-2,-7.369894981E-1,5.590971708E-1
1.234552625E0,2.640457153E-1,-8.748108149E-1,7.165529728E-1
1.254404625E0,5.374624729E-1,-8.842159510E-1,8.034524322E-1
1.274256625E0,7.538510561E-1,-7.748361230E-1,9.240658879E-1
1.294108708E0,9.279373288E-1,-5.058798790E-1,9.939311743E-1
1.313961708E0,1.000804663E0,-2.743491530E-1,9.016524553E-1
1.333813708E0,8.484439850E-1,-1.857347637E-1,7.957957983E-1
1.353665708E0,5.688801408E-1,-9.899498522E-2,6.426087618E-1
1.373517708E0,1.835389137E-1,8.444101363E-2,4.466834366E-1
1.393369708E0,-1.285838783E-1,4.640472233E-1,2.467249930E-1
1.413221708E0,-2.934391797E-1,9.336795211E-1,1.612498611E-2
1.433074708E0,-3.436766565E-1,1.179247975E0,-1.679265946E-1
1.452926708E0,-3.540726006E-1,1.022386432E0,-3.639126122E-1
1.472778708E0,-3.359206319E-1,5.915376544E-1,-5.846000910E-1
1.492630708E0,-2.720879316E-1,1.031961665E-1,-7.814644575E-1
1.512482708E0,-1.747266650E-1,-2.651090324E-1,-8.760907650E-1
1.532334708E0,-9.040484577E-2,-4.422368407E-1,-8.239672780E-1
1.552186708E0,-7.811848819E-2,-4.196195602E-1,-6.819755435E-1
1.572039708E0,-1.243366376E-1,-2.073759437E-1,-5.615174174E-1
1.591891708E0,-1.115566939E-1,1.128196865E-1,-5.278918743E-1
1.611743708E0,-9.051448852E-2,4.751771092E-1,-4.424450099E-1
1.631595708E0,-8.417388052E-2,6.827682853E-1,-2.645951211E-1
1.651447708E0,-8.633764833E-2,6.897910833E-1,-1.013106853E-1
1.671299708E0,-7.780961692E-2,5.333715677E-1,2.315345034E-2
1.691151708E0,-4.160359874E-2,2.853981256E-1,1.539502740E-1
1.711004708E0,2.553877421E-2,1.711660624E-2,2.383311987E-1
1.730856708E0,1.409915984E-1,-2.146696597E-1,3.220306933E-1
1.750708708E0,2.278412431E-1,-4.575394094E-1,4.081181884E-1
1.770560708E0,2.785716653E-1,-6.819640398E-1,4.461247623E-1
1.790412708E0,3.198106885E-1,-6.920953393E-1,4.159494936E-1
1.810264708E0,3.563684523E-1,-5.198698640E-1,3.796856701E-1
1.830116708E0,3.683307171E-1,-3.298924565E-1,3.642400503E-1
1.849969708E0,3.033067584E-1,-2.644779086E-1,3.071273267E-1
1.869821708E0,2.202000618E-1,-3.353893459E-1,1.921939552E-1
1.889673708E0,1.065471321E-1,-4.138157070E-1,1.238735765E-1
1.909525708E0,1.803770661E-2,-3.479815722E-1,3.759717941E-2
1.929377708E0,-1.200755499E-2,-1.774208397E-1,-1.809825748E-1
1.949229708E0,-1.217797399E-4,2.568930760E-2,-3.695621490E-1
1.969081708E0,-3.772327676E-2,2.086302042E-1,-4.588824213E-1
1.988934708E0,-1.199905574E-1,3.276242018E-1,-5.271224976E-1
2.008786708E0,-1.921684891E-1,3.404956162E-1,-5.760381222E-1
2.028638708E0,-2.405344248E-1,3.047217727E-1,-5.916957259E-1
2.048490708E0,-2.630553246E-1,2.677537203E-1,-5.501052141E-1
2.068342708E0,-2.630591094E-1,2.003329694E-1,-4.918259382E-1
2.088194708E0,-2.389434129E-1,3.500850499E-2,-4.125431776E-1
2.108047708E0,-2.260051221E-1,-1.631767303E-1,-3.513299823E-1
2.127899708E0,-2.224133611E-1,-2.998928726E-1,-2.880716622E-1
2.147751708E0,-2.059374750E-1,-3.037261665E-1,-2.102903873E-1
2.167603708E0,-1.501363516E-1,-2.696285844E-1,-9.611153603E-2
2.187455708E0,-7.452113926E-2,-2.891421616E-1,-1.116610132E-2
2.207307708E0,2.652701456E-3,-3.130541146E-1,1.008516848E-1
2.227159708E0,1.743932068E-2,-3.733572066E-1,2.625631988E-1
2.247012708E0,-1.835547574E-2,-4.908310771E-1,4.524174631E-1
2.266864708E0,-8.206069469E-2,-6.411543489E-1,6.119306087E-1
2.286716708E0,-1.636316478E-1,-7.866199613E-1,6.998003125E-1
2.306568708E0,-2.950889468E-1,-9.159922004E-1,7.625952959E-1
2.326420708E0,-3.613398373E-1,-9.164069295E-1,7.572340369E-1
2.346272708E0,-2.738138735E-1,-7.611424923E-1,6.714263558E-1
2.366124708E0,-6.124458089E-2,-4.215626717E-1,5.275950432E-1
2.385977708E0,1.973029375E-1,-6.988064945E-2,3.304039538E-1
2.405829708E0,3.408320844E-1,8.888319135E-2,1.133160815E-1
2.425681708E0,3.964386582E-1,1.076981053E-1,-5.262752250E-2
2.445533708E0,3.643232286E-1,1.454236507E-1,-1.421281099E-1
2.465385708E0,3.053471744E-1,2.240404934E-1,-2.447598279E-1
2.485237708E0,2.841277719E-1,3.574543893E-1,-2.862521410E-1
2.505089708E0,2.714732885E-1,5.848253965E-1,-3.254370093E-1
2.524942708E0,2.635935545E-1,7.691020966E-1,-3.463695049E-1
2.544794708E0,2.079345435E-1,7.957877517E-1,-3.561750054E-1
2.564646708E0,1.716106087E-1,6.516202688E-1,-3.726846278E-1
2.584498708E0,1.196271181E-1,4.031292200E-1,-3.407019079E-1
2.604350708E0,7.504809648E-2,1.391282827E-1,-2.822749913E-1
2.624202708E0,7.292054594E-2,-2.738439478E-2,-1.460420787E-1
2.644054708E0,7.199809700E-2,-3.849718720E-2,-4.139274731E-2
2.663907708E0,1.036036387E-1,2.658146247E-2,-6.388489157E-3
2.683759708E0,1.486600041E-1,1.412836611E-1,1.038530916E-1
2.703611708E0,1.364054531E-1,2.172122300E-1,2.553254664E-1
2.723463708E0,1.230272874E-1,1.953289211E-1,3.261719346E-1
2.743315708E0,4.585626721E-2,2.058028057E-2,3.649086654E-1
2.763167708E0,-1.115867775E-2,-2.278533205E-2,3.636844754E-1
2.783019708E0,-8.699242771E-2,-3.592285141E-2,3.513199687E-1
2.802872708E0,-1.745510846E-1,8.968829364E-2,3.695336878E-1
2.822724708E0,-2.287253439E-1,3.044276834E-1,4.131095409E-1
2.842576708E0,-2.212038338E-1,4.878500104E-1,3.270251751E-1
2.862428708E0,-1.925926358E-1,5.551198721E-1,5.727708712E-2
2.882280708E0,-2.408928871E-1,4.858356416E-1,-2.431641072E-1
2.902132708E0,-3.677489460E-1,2.411431670E-1,-3.457972109E-1
2.921984708E0,-4.732322991E-1,-3.335035592E-2,-3.686051965E-1
2.941836708E0,-5.254465342E-1,-2.149714082E-1,-4.082799256E-1
2.961689708E0,-5.905625820E-1,-1.459942460E-1,-4.510640800E-1
2.981541708E0,-6.202669740E-1,-5.776545033E-2,-4.626924694E-1
3.001393708E0,-5.507772565E-1,-4.254672676E-2,-3.934733868E-1
3.021245708E0,-4.783865511E-1,-5.836422741E-2,-3.534387946E-1
3.041097708E0,-4.148502052E-1,-1.755066812E-1,-3.817492723E-1
3.060949708E0,-3.775718212E-1,-3.437353969E-1,-3.388910592E-1
3.080801708E0,-3.626926243E-1,-3.678360283E-1,-2.553163469E-1
3.100654708E0,-2.936956882E-1,-3.679459393E-1,-1.494120657E-1
3.120506708E0,-2.039781064E-1,-2.259109318E-1,-1.621771157E-1
3.140358708E0,-1.223390773E-1,-1.430259049E-1,-1.129429787E-1
3.160210708E0,-5.903971568E-2,-2.430106252E-1,8.713379502E-2
3.180062708E0,-1.427874565E-1,-4.991402626E-1,1.780870706E-1
3.199914708E0,-2.936806381E-1,-6.788132787E-1,1.144249886E-1
3.219766708E0,-3.745320439E-1,-5.261515975E-1,1.444553733E-1
3.239619708E0,-4.002771676E-1,-3.696819842E-1,2.134991437E-1
3.259471708E0,-2.856371105E-1,-8.082360029E-2,1.592833996E-1
3.279323708E0,-7.686664909E-2,1.438540071E-1,-2.719251439E-2
3.299176208E0,1.574304849E-1,3.151316047E-1,-2.634178996E-1
3.319028208E0,3.723003566E-1,2.938962877E-1,-4.017180204E-1
3.338880208E0,5.303333402E-1,1.189264134E-1,-5.123301744E-1
3.358732208E0,6.174373627E-1,-5.506487936E-2,-5.790454745E-1
3.378585208E0,6.284403205E-1,-1.077567190E-1,-5.790236592E-1
3.398437208E0,6.781067252E-1,4.326212034E-2,-5.614531636E-1
3.418289208E0,7.439305782E-1,2.993738055E-1,-5.040943027E-1
3.438141208E0,7.449325323E-1,6.095035076E-1,-3.834218383E-1
3.457993208E0,6.199138165E-1,8.001777530E-1,-2.511773109E-1
3.477845208E0,4.727244079E-1,7.950820923E-1,-1.499650925E-1
3.497697208E0,3.386819065E-1,6.915905476E-1,-1.971499324E-1
3.517549208E0,2.118187547E-1,5.701811314E-1,-2.372327149E-1
3.537402208E0,6.906387210E-2,4.844775796E-1,-1.378898919E-1
3.557254208E0,-4.922817275E-2,4.421481192E-1,4.493708909E-2
3.577106208E0,-9.626964480E-2,3.336713314E-1,2.149868309E-1
3.596958208E0,-1.218623072E-1,1.889605522E-1,3.296893239E-1
3.616810208E0,-1.410705149E-1,6.135369092E-2,4.092776775E-1
3.636662208E0,-1.265283227E-1,-6.494432688E-2,5.047831535E-1
3.656514208E0,-6.810871512E-2,-1.509022266E-1,6.338324547E-1
3.676367208E0,4.641945660E-2,-2.053125501E-1,7.273740768E-1
3.696219208E0,5.657619983E-2,-3.128637969E-1,7.881079912E-1
3.716071208E0,-2.371713072E-1,-3.739887476E-1,8.550951481E-1
3.735923208E0,-6.151880622E-1,-2.809625268E-1,8.882455826E-1
3.755775208E0,-9.605639577E-1,-7.252290100E-2,7.878887057E-1
3.775627208E0,-1.268066764E0,8.501692116E-2,5.267460346E-1
3.795479208E0,-1.613976717E0,1.515476853E-1,3.647071719E-1
3.815331208E0,-1.917783260E0,1.395510882E-1,3.348616660E-1
3.835184208E0,-2.128909111E0,2.960916162E-1,4.403490722E-1
3.855036208E0,-2.182240486E0,4.892353714E-1,6.363096237E-1
3.874888208E0,-2.083200455E0,6.818833947E-1,8.612704277E-1
3.894740208E0,-1.898119450E0,8.763374686E-1,1.024640322E0
3.914592208E0,-1.650733709E0,1.072835922E0,1.124740481E0
3.934444208E0,-1.374915719E0,1.271093726E0,1.217828989E0
3.954296208E0,-1.184513688E0,1.360348225E0,1.346201301E0
3.974149208E0,-9.983263016E-1,1.362531424E0,1.374372244E0
3.994001208E0,-8.072299361E-1,1.277212262E0,1.276268959E0
4.013853208E0,-6.181533337E-1,1.002618790E0,1.066041470E0
4.033705208E0,-4.696439803E-1,6.759908199E-1,7.369731069E-1
4.053557208E0,-2.543617189E-1,4.037976861E-1,3.688405454E-1
4.073409208E0,4.625190794E-2,2.220936865E-1,3.027955815E-2
4.093261208E0,4.377013743E-1,1.442580372E-1,-4.615623951E-1
4.113114208E0,8.491336107E-1,7.390795648E-2,-1.127660751E0
4.132966208E0,1.175019026E0,-1.933502704E-1,-1.604292631E0
4.152818208E0,1.316433430E0,-7.672848701E-1,-1.623818040E0
4.172670208E0,1.302227497E0,-1.267952561E0,-1.554138422E0
4.192522208E0,1.359941602E0,-1.520641446E0,-1.707583785E0
4.212374208E0,1.484013796E0,-1.628219843E0,-1.693514824E0
4.232226208E0,1.556831360E0,-1.587705016E0,-1.488238335E0
4.252078208E0,1.602743030E0,-1.428461432E0,-1.224068522E0
4.271931208E0,1.642300248E0,-1.345563889E0,-9.250207543E-1
4.291782708E0,1.564801216E0,-1.344945908E0,-6.350068450E-1
4.311634708E0,1.247310400E0,-1.317904592E0,-4.513799846E-1
4.331486708E0,7.444365025E-1,-1.233080864E0,-3.080295920E-1
4.351338708E0,1.900543422E-1,-1.032730579E0,-1.523811370E-1
4.371190708E0,-1.774906963E-1,-6.785012484E-1,-1.165055931E-1
4.391042708E0,-2.897123694E-1,-2.721529305E-1,-1.613934934E-1
4.410895708E0,-2.860449255E-1,-3.185277432E-2,-1.606535167E-1
4.430747708E0,-2.253010571E-1,-4.747922719E-2,-1.724817604E-1
4.450599708E0,-1.679308861E-1,-1.682022661E-1,-2.207069397E-1
4.470451708E0,-7.379908860E-2,-2.017936409E-1,-3.162167072E-1
4.490303708E0,7.060529292E-2,-1.266120076E-1,-3.987327516E-1
4.510155708E0,2.222633958E-1,-3.405742720E-2,-3.939784765E-1
4.530007708E0,3.806032836E-1,1.841202378E-2,-3.323587477E-1
4.549859708E0,4.735345244E-1,-6.871694326E-2,-2.425965220E-1
4.569712708E0,5.229279399E-1,-2.771047354E-1,-1.697567254E-1
4.589564708E0,5.358220935E-1,-5.445224643E-1,-8.989168704E-2
4.609416708E0,5.675963759E-1,-7.595355511E-1,-9.021932632E-2
4.629268708E0,5.871267319E-1,-8.794742823E-1,-1.021181867E-1
4.649120708E0,5.420625806E-1,-8.916708827E-1,-4.742687941E-2
4.668972708E0,4.773368537E-1,-8.843501806E-1,1.007282138E-1
4.688824708E0,3.371386826E-1,-8.494712710E-1,2.595878541E-1
4.708676708E0,1.767604053E-1,-6.162099242E-1,3.252038956E-1
4.728529708E0,3.906777874E-2,-2.520614564E-1,3.130991459E-1
4.748381708E0,-8.108188212E-2,1.475614160E-1,2.346707284E-1
4.768233708E0,-1.811284125E-1,5.280306339E-1,5.117668211E-2
4.788085708E0,-2.602035999E-1,7.444359660E-1,-1.323943585E-1
4.807937708E0,-3.551858068E-1,7.142220736E-1,-2.828896046E-1
4.827789708E0,-4.654835165E-1,4.470075369E-1,-3.964311182E-1
4.847641708E0,-5.768707395E-1,-1.211240329E-2,-4.438323975E-1
4.867494708E0,-6.364891529E-1,-4.424068630E-1,-5.204750299E-1
4.887346708E0,-6.451991200E-1,-6.211803555E-1,-5.332124829E-1
4.907198708E0,-5.497292876E-1,-4.543101490E-1,-4.329833686E-1
4.927050708E0,-3.279507756E-1,-5.031099170E-2,-3.030304015E-1
4.946902708E0,-4.909040406E-2,3.633689582E-1,-2.035555243E-1
4.966754708E0,1.962361634E-1,6.367986202E-1,-1.118534729E-1
4.986606708E0,4.073738158E-1,6.835778356E-1,8.753979951E-2
5.006459708E0,5.837080479E-1,5.630389452E-1,3.135027885E-1
5.026311708E0,6.519708633E-1,2.182953060E-1,4.130158424E-1
5.046163708E0,5.939723849E-1,-2.235134244E-1,4.275186360E-1
5.066015708E0,4.705422223E-1,-5.972263813E-1,3.327971101E-1
5.085867708E0,3.167326152E-1,-7.290615439E-1,2.370589375E-1
5.105719708E0,1.716040522E-1,-5.557937026E-1,2.331087142E-1
5.125571708E0,9.957511723E-2,-1.266216338E-1,2.278553396E-1
5.145423708E0,9.110943228E-2,4.129928350E-1,2.092787772E-1
5.165276708E0,1.233314648E-1,7.129930854E-1,1.880562454E-1
5.185128708E0,1.803171039E-1,6.710715294E-1,1.607663184E-1
5.204980708E0,2.093725055E-1,3.582448065E-1,1.063528061E-1
5.224832708E0,2.173400521E-1,-5.567302555E-2,4.469193518E-2
5.244684708E0,2.184314579E-1,-2.610850930E-1,-3.381609544E-2
5.264536708E0,2.171451151E-1,-1.643278599E-1,-5.958094075E-2
5.284388708E0,1.984765828E-1,1.709955931E-1,5.750004575E-2
5.304241000E0,1.802433133E-1,5.914984941E-1,1.583624035E-1
5.324094000E0,1.295551211E-1,8.715268970E-1,1.828995943E-1
5.343946000E0,4.976219684E-2,9.133421183E-1,1.227589399E-1
5.363798000E0,-2.225330658E-2,7.377713919E-1,4.799250886E-2
5.383650000E0,-8.305925876E-2,4.195705056E-1,4.816378001E-3
5.403502000E0,-1.157867387E-1,6.746146083E-2,9.010803886E-3
5.423354000E0,-1.095114350E-1,-1.283202916E-1,5.297107995E-2
5.443206000E0,-4.686993733E-2,-1.530624330E-1,1.279934347E-1
5.463059000E0,3.170149773E-2,-8.207026124E-2,1.803586334E-1
5.482911000E0,7.193038613E-2,-4.013027065E-3,2.225013375E-1
5.502763000E0,9.928918630E-2,8.476811647E-2,2.188759744E-1
5.522615000E0,1.443391442E-1,9.786874801E-2,1.972824633E-1
5.542467000E0,1.986822486E-1,3.376838192E-2,1.903746724E-1
5.562319000E0,2.080391645E-1,-1.608933210E-1,2.216430455E-1
5.582171000E0,1.423775405E-1,-4.069659412E-1,3.044081926E-1
5.602023000E0,5.164060369E-2,-5.428466201E-1,3.488645256E-1
5.621876000E0,-3.167590871E-2,-4.215355217E-1,3.047735095E-1
5.641728000E0,-1.171650365E-1,-9.740190208E-2,2.157562375E-1
5.661580000E0,-2.129761875E-1,2.798281908E-1,1.770336628E-1
5.681432000E0,-2.899808884E-1,5.871320963E-1,1.249698475E-1
5.701284000E0,-3.678115606E-1,5.745973587E-1,5.753502995E-2
5.721136000E0,-4.818857312E-1,4.052863717E-1,-7.295751572E-2
5.740988000E0,-5.659775138E-1,2.176138312E-1,-2.172910571E-1
5.760840000E0,-6.115017533E-1,1.755058467E-1,-3.304933608E-1
5.780693000E0,-6.129912138E-1,2.502583265E-1,-3.761563599E-1
5.800545000E0,-5.606141090E-1,3.815329075E-1,-3.962398469E-1
5.820397000E0,-5.025379658E-1,4.588581622E-1,-3.837562203E-1
5.840249000E0,-4.463167489E-1,4.593963921E-1,-3.966930509E-1
5.860101000E0,-3.976077437E-1,3.676668406E-1,-4.171104729E-1
5.879953000E0,-3.412389755E-1,1.458896548E-1,-4.148797095E-1
5.899805000E0,-2.662360966E-1,-1.802621633E-1,-3.732551932E-1
5.919658000E0,-1.171744019E-1,-5.287747979E-1,-1.829510182E-1
5.939510000E0,5.664864182E-2,-7.245674133E-1,1.495940983E-2
5.959362000E0,2.211023420E-1,-6.627074480E-1,8.489818126E-2
5.979214000E0,4.066613019E-1,-4.756272733E-1,1.025749147E-1
5.999066000E0,5.539014339E-1,-2.204678953E-1,1.179746166E-1
6.018918000E0,5.799166560E-1,4.844903946E-2,1.281622052E-1
6.038770000E0,4.747968912E-1,2.095018178E-1,1.938861459E-1
6.058622000E0,2.920905352E-1,1.350696385E-1,2.599991262E-1
6.078475000E0,1.052459627E-1,-1.069888920E-1,2.399809062E-1
6.098327000E0,-4.381308332E-2,-3.406223059E-1,2.180314213E-1
6.118179000E0,-7.616024464E-2,-3.918249905E-1,2.214779854E-1
6.138031000E0,4.485882819E-3,-2.579208016E-1,2.306564599E-1
6.157883000E0,1.401646882E-1,-1.280109435E-1,1.752116382E-1
6.177735000E0,2.536607087E-1,-2.490239963E-2,8.015047759E-2
6.197587000E0,3.328040838E-1,4.395371675E-2,-6.311926991E-2
6.217439000E0,3.578411043E-1,5.758292973E-2,-2.118899971E-1
6.237292000E0,3.195439875E-1,5.268821865E-2,-3.228078485E-1
6.257144000E0,2.418748438E-1,9.063078463E-2,-3.641314209E-1
6.276996000E0,1.698382944E-1,1.850042790E-1,-3.156651258E-1
6.296847458E0,1.109651029E-1,2.824837863E-1,-2.285807133E-1
6.316699458E0,9.521654993E-2,3.225927353E-1,-1.938424706E-1
6.336551458E0,8.990252018E-2,2.933373749E-1,-1.742305160E-1
6.356403458E0,8.479321003E-2,2.198517919E-1,-1.427411288E-1
6.376256458E0,5.985911936E-2,1.735743135E-1,-1.308243275E-1
6.396108458E0,1.018178239E-1,1.667044014E-1,-1.175497994E-1
6.415960458E0,1.780129522E-1,9.742143005E-2,-9.496183693E-2
6.435812458E0,2.219716907E-1,-1.817861944E-2,-4.360722750E-2
6.455664458E0,2.677221000E-1,-1.382802725E-1,1.795898005E-2
6.475516458E0,2.959952652E-1,-2.347675115E-1,9.908523411E-2
6.495368458E0,3.102701008E-1,-3.158144057E-1,2.010179311E-1
6.515220458E0,3.102820516E-1,-3.323477209E-1,2.867563367E-1
6.535073458E0,2.615040839E-1,-3.053703606E-1,3.395142853E-1
