"Time (s)","X (m/s^2)","Y (m/s^2)","Z (m/s^2)"
1.830416732E-4,-3.729171710E0,4.834919366E0,-5.199681835E-1
2.003404166E-2,-2.562908880E0,3.919031972E0,-1.469027271E0
3.988404167E-2,-1.020178333E0,2.595652118E0,-2.079933106E0
5.973504166E-2,5.679277772E-1,1.322954761E0,-2.287950142E0
7.958504168E-2,2.088874522E0,-1.054346538E-1,-2.335678478E0
9.943604167E-2,3.228368799E0,-1.284096504E0,-2.293947777E0
1.192860417E-1,3.988212719E0,-2.549714638E0,-2.121257134E0
1.391370417E-1,3.996327485E0,-4.121551455E0,-2.055164739E0
1.589880417E-1,3.441016830E0,-5.295746618E0,-2.161286003E0
1.788380417E-1,3.056931360E0,-5.902729118E0,-2.097092492E0
1.986890417E-1,2.593772823E0,-5.964992024E0,-1.680982991E0
2.185390417E-1,1.501735718E0,-5.899765749E0,-8.572471306E-1
2.383900417E-1,-4.349743724E-3,-5.625826619E0,-1.708924788E-1
2.582410417E-1,-1.683033902E0,-4.907096812E0,4.995672481E-1
2.780910417E-1,-2.780192583E0,-3.626009284E0,1.216846946E0
2.979420417E-1,-3.704740874E0,-1.869836070E0,2.007173571E0
3.177920417E-1,-5.230901581E0,-1.761888868E-1,2.788583922E0
3.376430417E-1,-6.928288059E0,1.579958600E0,3.397274979E0
3.574940417E-1,-7.957502679E0,2.965814783E0,3.557530203E0
3.773440417E-1,-8.098536351E0,3.647298412E0,3.249839190E0
3.971950417E-1,-7.384418242E0,3.706825406E0,2.706322077E0
4.170450417E-1,-5.805126225E0,3.003108909E0,2.062390729E0
4.368960417E-1,-3.532857876E0,1.920753039E0,1.377062556E0
4.567460417E-1,-1.264283799E0,7.609028506E-1,7.847501349E-1
4.765970417E-1,8.423627508E-1,-3.875932145E-1,1.622929788E-1
4.964480417E-1,2.623486619E0,-1.481375129E0,-4.955070877E-1
5.162980417E-1,3.946023304E0,-2.461459689E0,-1.051603024E0
5.361490417E-1,4.895089554E0,-3.399935462E0,-1.659519470E0
5.559990417E-1,4.943833698E0,-4.204839780E0,-2.365794417E0
5.758500417E-1,4.846921361E0,-4.440430530E0,-2.660537209E0
5.957010417E-1,4.604107545E0,-4.641338521E0,-3.023982300E0
6.155510417E-1,3.799003837E0,-5.257664872E0,-3.365607336E0
6.354020417E-1,2.445964567E0,-4.809112680E0,-3.027977410E0
6.552520417E-1,8.736406767E-1,-3.382211382E0,-2.198311742E0
6.751030417E-1,-5.808857918E-1,-1.460525127E0,-1.102494412E0
6.949542500E-1,-2.232632997E0,9.695297509E-1,-8.886496022E-2
7.148042500E-1,-3.832714790E0,3.835051922E0,1.130571279E0
7.346552500E-1,-4.718303082E0,6.413759978E0,2.583799227E0
7.545052500E-1,-5.152520825E0,7.628552944E0,3.673809103E0
7.743562500E-1,-5.049175966E0,7.739902056E0,3.977552075E0
7.942072500E-1,-3.941064865E0,7.668291206E0,3.761157734E0
8.140572500E-1,-1.866255235E0,6.557236617E0,2.959942717E0
8.339082500E-1,1.947707534E-1,4.441628040E0,1.514486157E0
8.537582500E-1,2.487881502E0,2.285226363E0,-9.187554538E-2
8.736092500E-1,4.592383293E0,-1.074191988E-2,-1.123656508E0
8.934592500E-1,5.895025411E0,-8.605212790E-1,-2.122456398E0
9.133102500E-1,6.612785751E0,-1.705907625E0,-2.972054347E0
9.331612500E-1,7.277192586E0,-3.274627876E0,-3.435705804E0
9.530112500E-1,7.842038296E0,-4.110190900E0,-3.589236730E0
9.728622500E-1,8.091179384E0,-5.261012987E0,-3.649860077E0
9.927122500E-1,7.500716438E0,-6.086877819E0,-3.600493789E0
1.012563250E0,6.310692862E0,-5.779177451E0,-3.326397954E0
1.032414250E0,4.629251742E0,-5.764952930E0,-3.733888074E0
1.052264250E0,1.794568956E-2,-6.769767119E0,-5.877844537E0
1.072115250E0,-7.135219266E0,-5.794294258E0,-8.326136881E0
1.091966250E0,-6.326223652E0,-1.911310955E0,-6.401528188E0
1.111816250E0,-5.685010382E0,1.276561782E1,1.320555063E0
1.131667250E0,-5.626949285E0,4.520558201E1,1.093688242E1
1.151517250E0,-9.075531827E0,5.609769113E1,1.978309288E1
1.171368250E0,-4.221727708E0,4.563339237E1,2.224180028E1
1.191218250E0,1.045108171E1,4.289003783E1,1.296295317E1
1.211069250E0,2.224055833E1,4.853908901E1,-2.750101350E0
1.230920250E0,3.186252123E1,4.820274313E1,-7.464773018E0
1.250770250E0,4.333392102E1,2.251511551E1,-2.044334410E1
1.270621250E0,4.103611964E1,-2.568398597E1,-1.184920009E1
1.290471250E0,9.612202143E0,-8.059181783E1,-2.680533224E-1
1.310322250E0,1.059191540E1,-7.951497588E1,3.044819671E1
1.330173250E0,-3.649146950E1,-4.387360967E1,-1.409920048E1
1.350023250E0,1.581770769E1,-3.393989428E1,-2.653204976E1
1.369874250E0,1.489531293E1,-4.421560162E1,-1.559303194E1
1.389725250E0,2.299197934E1,-1.950870293E1,1.884335995E0
1.409575250E0,2.715526939E1,-4.755115398E0,6.272483647E-2
1.429426250E0,2.022234273E1,4.272209060E0,3.895412729E0
1.449276250E0,9.956292658E0,-3.825531193E0,8.561811832E0
1.469127250E0,-1.583883368E1,-1.114623876E0,1.706959656E1
1.488977250E0,-3.790651674E1,-7.094868947E-2,1.731633503E1
1.508828250E0,-4.308212588E1,1.029618429E1,1.875226033E1
1.528679250E0,-3.708922568E1,9.031187128E0,1.466747851E1
1.548529250E0,-2.542075368E1,6.081634621E0,8.403083315E0
1.568380250E0,-1.237808776E1,3.629977497E0,2.962186001E0
1.588231250E0,-1.515680158E0,-3.068957913E-1,-1.577958267E0
1.608081250E0,6.717455589E0,-3.832419213E0,-4.274723947E0
1.627932250E0,1.358822634E1,-6.321427181E0,-5.709231303E0
1.647782250E0,1.686500248E1,-8.890092645E0,-8.005821145E0
1.667633250E0,1.637843696E1,-1.091475772E1,-9.991266024E0
1.687484250E0,1.760753338E1,-1.257470623E1,-9.944695290E0
1.707334125E0,1.813818691E1,-1.293150333E1,-8.375894347E0
1.727185125E0,1.668040823E1,-1.153687574E1,-6.343983985E0
1.747035125E0,1.417447286E1,-8.509363477E0,-3.741635635E0
1.766886125E0,9.791566653E0,-2.676436665E0,-1.673326355E0
1.786737125E0,9.872421366E-1,3.800797763E0,-1.986454693E0
1.806587125E0,-9.045528009E0,1.041319643E1,-3.743026103E0
1.826438125E0,-1.559015861E1,1.894148910E1,-5.238902911E0
1.846288125E0,-1.763336404E1,2.392408866E1,-5.395481406E0
1.866139125E0,-1.419928961E1,2.362793421E1,-4.838861559E0
1.885990125E0,-7.993100528E0,1.963354215E1,-4.050518310E0
1.905840125E0,-1.692929730E0,1.359639841E1,-3.474387182E0
1.925691125E0,4.775238006E0,7.324762609E0,-2.729490792E0
1.945541125E0,8.824081088E0,2.778775218E0,-2.026568785E0
1.965392125E0,1.065490395E1,-6.081922889E-1,-1.030057131E0
1.985243125E0,1.160788784E1,-4.395815690E0,-8.477714983E-1
2.005093125E0,1.060364960E1,-8.436679662E0,-2.136677849E0
2.024944125E0,8.791732537E0,-1.200980673E1,-4.027629969E0
2.044794125E0,7.122427897E0,-1.532135860E1,-5.242396038E0
2.064645125E0,5.325650448E0,-1.656958244E1,-4.564676262E0
2.084496125E0,3.203286583E0,-1.547432293E1,-2.935121579E0
2.104346125E0,4.999954104E-3,-1.268958999E1,-8.478329672E-1
2.124197125E0,-4.764572099E0,-8.678844438E0,1.381008257E0
2.144048125E0,-9.783685191E0,-3.099993764E0,3.437124338E0
2.163898125E0,-1.558882896E1,3.568569161E0,5.090499408E0
2.183749125E0,-2.059985535E1,9.020537009E0,5.169131595E0
2.203599125E0,-2.148410171E1,1.011602923E1,3.469119133E0
2.223450125E0,-1.827692263E1,9.182833496E0,1.718820616E0
2.243301125E0,-1.239572530E1,6.511472214E0,4.517232831E-1
2.263151125E0,-6.112079319E0,2.589337125E0,-5.162693810E-1
2.283002125E0,5.039153838E-1,-1.013623604E0,-1.029235085E0
2.302852125E0,5.979929906E0,-4.470674084E0,-9.203768867E-1
2.322703125E0,9.549187285E0,-7.806055115E0,-4.013225500E-1
2.342554125E0,1.154675520E1,-1.091929165E1,-6.728975773E-1
2.362404125E0,1.122453502E1,-1.384939924E1,-2.719649343E0
2.382255125E0,8.160910354E0,-1.387296118E1,-5.013415564E0
2.402105125E0,5.134424862E0,-1.205341760E1,-6.387743962E0
2.421956125E0,7.183971012E-1,-8.509150638E0,-5.359912208E0
2.441807125E0,-3.670396668E0,-3.721042911E0,-2.567887784E0
2.461657125E0,-8.729795321E0,3.579563096E0,9.488662025E-1
2.481508125E0,-1.209971352E1,1.014448412E1,3.200070029E0
2.501358125E0,-1.225649608E1,1.256723817E1,3.593678859E0
2.521209125E0,-9.197798860E0,1.202535331E1,2.788942941E0
2.541060125E0,-4.266855349E0,9.255367037E0,1.605592793E0
2.560910125E0,7.700835639E-1,6.025350493E0,7.268018889E-1
2.580761125E0,4.920814964E0,3.163442486E0,-2.883578153E-1
2.600612125E0,7.922656782E0,2.106272328E-1,-8.041494423E-1
2.620462125E0,9.278001609E0,-2.080346358E0,-8.310612524E-1
2.640313125E0,9.431251284E0,-3.895419161E0,-9.453065637E-1
2.660163125E0,8.910518723E0,-5.121701905E0,-1.729683719E0
2.680014125E0,7.490914750E0,-5.441471511E0,-2.853014392E0
2.699865875E0,6.393950781E0,-4.080624454E0,-3.753361934E0
2.719715875E0,5.917151275E0,-2.867581560E0,-4.497364284E0
2.739566875E0,5.492698383E0,-2.322030492E0,-4.744436628E0
2.759416875E0,4.194590780E0,-1.981658222E0,-4.546235313E0
2.779267875E0,2.102461113E0,-1.108986721E0,-3.255586419E0
2.799118875E0,3.401740497E-1,-2.009395659E-1,-1.963990129E0
2.818968875E0,-1.712323775E0,1.866039473E-1,-1.608049355E0
2.838819875E0,-5.783065850E0,-3.582168031E-1,-3.180460807E0
2.858669875E0,-9.708943741E0,-1.171501350E0,-6.638526363E0
2.878520875E0,-1.271341271E1,6.435562491E-1,-9.921967163E0
2.898371875E0,-1.349567895E1,1.285911246E1,-5.087626086E0
2.918221875E0,-1.118146443E1,2.871879614E1,4.399443887E0
2.938072875E0,-6.917373061E0,4.005810499E1,1.583033066E1
2.957923875E0,1.811525881E-1,4.866852765E1,2.307907245E1
2.977773875E0,1.451978018E1,4.367652108E1,1.629254838E1
2.997624875E0,2.804875435E1,4.723853259E1,-1.928299456E0
3.017474875E0,3.353589378E1,4.658271356E1,-1.744555148E1
3.037325875E0,4.321896008E1,3.089687930E1,-1.723474766E1
3.057176875E0,4.379878870E1,-9.779989750E0,-1.623879025E1
3.077026875E0,2.276454136E1,-7.196563575E1,-1.043298224E0
3.096877875E0,-1.560809085E1,-7.860899426E1,5.650997713E0
3.116728875E0,-1.440404975E1,-7.086005825E1,2.194433605E1
3.136578875E0,-2.417865304E1,-2.775759575E1,-3.368933408E1
3.156429875E0,2.844480731E1,-2.943170739E1,-2.418412136E1
3.176279875E0,9.383615772E0,-2.698893715E1,-1.198071800E1
3.196130875E0,1.746322293E1,-1.246164681E1,-4.909559074E0
3.215981875E0,2.129964076E1,1.362474337E-1,-5.279621751E0
3.235831875E0,1.746996126E1,2.355733551E0,-2.187632825E0
3.255682875E0,1.132129942E1,-3.061309024E-1,1.964586107E0
3.275532875E0,3.735183525E0,-6.746881117E0,6.765393401E0
3.295383875E0,-3.228661160E0,-1.181735381E1,1.445196066E1
3.315234875E0,-8.863287839E0,-1.336803306E1,1.974639107E1
3.335084875E0,-1.333041442E1,-8.744375353E0,2.087578779E1
3.354935875E0,-1.462083410E1,-5.744718640E0,1.961995322E1
3.374785875E0,-1.278719171E1,-9.995999345E-1,1.905616586E1
3.394636875E0,-1.063719858E1,2.277565341E0,1.773710768E1
3.414487875E0,-1.002780060E1,4.236440472E0,1.487698074E1
3.434337875E0,-9.600595420E0,4.536089224E0,1.123794970E1
3.454188875E0,-8.006257932E0,4.564183341E0,7.064472050E0
3.474038875E0,-5.485253123E0,3.337392181E0,3.123470920E0
3.493889875E0,-3.099555223E0,1.183751267E0,-3.685663748E-1
3.513740875E0,4.259509492E-1,-9.791378957E-1,-3.290814139E0
3.533590875E0,3.572707821E0,-2.688037541E0,-5.683038701E0
3.553441875E0,6.078070158E0,-4.129773810E0,-7.240401905E0
3.573292875E0,8.469238713E0,-5.159040470E0,-8.021878184E0
3.593142875E0,9.640400925E0,-5.449887993E0,-8.541520239E0
3.612993875E0,9.135426026E0,-5.204425973E0,-8.738140467E0
3.632843875E0,9.032845983E0,-5.317021712E0,-8.762785896E0
3.652694875E0,8.514140652E0,-4.810642312E0,-8.533511893E0
3.672545875E0,7.453441699E0,-3.339874617E0,-7.975057774E0
3.692395875E0,4.845785832E0,1.754076988E-1,-6.795841023E0
3.712246875E0,1.809138463E0,5.740709789E0,-5.267658348E0
3.732097875E0,-1.617708224E0,1.072917996E1,-3.119081415E0
3.751947875E0,-5.138818460E0,1.429748775E1,-7.386936638E-1
3.771798875E0,-6.171009312E0,1.688656935E1,1.267176417E0
3.791648875E0,-5.161387542E0,1.618620039E1,1.849497407E0
3.811499875E0,-2.895219594E0,1.288428590E1,9.391514191E-1
3.831350875E0,8.291112059E-1,8.777512109E0,-3.954957265E-1
3.851200875E0,4.353263163E0,4.843072139E0,-1.642374703E0
3.871051875E0,6.926029864E0,1.019157409E0,-2.637904391E0
3.890901875E0,8.103017072E0,-2.413789093E0,-3.671711999E0
3.910752875E0,7.253708999E0,-5.829542443E0,-4.692907455E0
3.930603875E0,5.528671623E0,-8.213683230E0,-5.098065121E0
3.950453875E0,3.793489328E0,-1.032185006E1,-5.060582129E0
3.970304875E0,2.221872366E0,-1.188670413E1,-4.707205359E0
3.990155875E0,-5.337806225E-2,-1.181943074E1,-3.948172156E0
4.010005875E0,-1.969564426E0,-9.794904243E0,-2.382636590E0
4.029856875E0,-3.290699533E0,-7.622606910E0,-2.302575052E-1
4.049706875E0,-5.033656286E0,-5.492575591E0,2.081935632E0
4.069557875E0,-6.891960477E0,-3.117830696E0,4.535869661E0
4.089408875E0,-8.336052589E0,-4.722831166E-1,6.257104885E0
4.109258875E0,-9.488008452E0,2.234714606E0,7.226831102E0
4.129109875E0,-1.059449987E1,4.312819726E0,7.456976341E0
4.148960875E0,-1.109253296E1,5.234388276E0,6.832715904E0
4.168810875E0,-1.037996085E1,4.785013381E0,5.481423197E0
4.188661875E0,-8.402370540E0,3.592922814E0,3.711770396E0
4.208511875E0,-5.540989367E0,1.956364337E0,1.793517042E0
4.228362875E0,-2.375785700E0,3.464551288E-1,2.677673936E-2
4.248213875E0,5.945536584E-1,-1.200929217E0,-1.431476452E0
4.268063875E0,3.023652517E0,-3.122145941E0,-2.657634358E0
4.287914875E0,4.986583861E0,-4.559186311E0,-3.510291425E0
4.307765875E0,5.932609559E0,-5.838433135E0,-4.212905429E0
4.327615875E0,5.479043380E0,-7.074754379E0,-4.946231056E0
4.347466875E0,4.580668981E0,-7.769911721E0,-5.420194078E0
4.367316875E0,4.340125054E0,-7.718328170E0,-5.423555058E0
4.387167875E0,4.396503323E0,-7.076737170E0,-5.018692092E0
4.407018875E0,3.835955901E0,-5.724203099E0,-3.499056585E0
4.426868875E0,2.725232264E0,-3.837967343E0,-1.114103327E0
4.446719875E0,1.048077153E0,-1.161191540E0,1.405103171E0
4.466570875E0,-7.854079467E-1,1.918515310E0,3.625498238E0
4.486420875E0,-2.442249831E0,5.621662232E0,5.080302449E0
4.506271875E0,-4.053077052E0,8.412570423E0,5.507806419E0
4.526121875E0,-5.602528389E0,1.016390390E1,5.164483643E0
4.545972875E0,-6.738942937E0,1.039935958E1,3.930891294E0
4.565823875E0,-6.553742906E0,9.308348073E0,2.260715420E0
4.585673875E0,-5.395037017E0,7.479492799E0,4.655216888E-1
4.605524875E0,-3.301739661E0,5.244977583E0,-1.053794707E0
4.625375875E0,-3.564252162E-1,2.894474659E0,-2.249074198E0
4.645225875E0,2.944418651E0,7.102583617E-1,-3.023624450E0
4.665076875E0,5.671891569E0,-1.326427422E0,-3.223955028E0
4.684926875E0,7.184161046E0,-2.866241378E0,-3.004467802E0
4.704777792E0,8.085607572E0,-4.092911793E0,-3.020788550E0
4.724628792E0,9.113353372E0,-5.040655988E0,-3.256140150E0
4.744478792E0,9.800333968E0,-5.989914027E0,-3.613514077E0
4.764329792E0,9.497043570E0,-6.844127330E0,-4.228687064E0
4.784180792E0,7.596879162E0,-7.202580360E0,-5.077798671E0
4.804030792E0,4.669056662E0,-6.376146010E0,-5.950526013E0
4.823881792E0,-2.344017777E0,-5.274729386E0,-7.920092778E0
4.843732792E0,-1.020096121E1,-1.918830475E0,-1.026559750E1
4.863582792E0,-1.309837351E1,3.796968421E0,-8.506051029E0
4.883433792E0,-9.710133065E0,1.688734703E1,-2.040958929E-1
4.903283792E0,-4.461160664E0,2.796704535E1,9.058883049E0
4.923134792E0,4.962964618E0,4.168867826E1,2.058431111E1
4.942985792E0,1.915041830E1,4.568246221E1,2.620488635E1
4.962835792E0,2.588552312E1,4.149098156E1,1.283907289E1
4.982686792E0,2.920821277E1,4.012523571E1,-4.251661944E0
5.002536792E0,3.851122643E1,4.033761126E1,-1.134548351E1
5.022387792E0,4.411097856E1,1.946538558E1,-1.242538238E1
5.042238792E0,4.059625465E1,-2.124792565E1,-1.645185460E1
5.062088792E0,3.048182054E1,-7.687976676E1,-1.725597188E1
5.081939792E0,-9.851342154E0,-7.807968558E1,-1.907609200E1
5.101790792E0,1.466616289E1,-5.706755709E1,3.436817710E1
5.121640792E0,-4.985776945E0,-2.890241976E1,-2.078025131E1
5.141491792E0,1.467835316E1,-1.576432612E1,-3.851589719E1
5.161342792E0,8.334904196E0,-2.267927492E1,-3.394786988E1
5.181192792E0,-9.054380109E0,-7.189272682E0,-2.864859096E0
5.201043792E0,3.541538068E0,-1.209448377E1,2.516808262E0
5.220894792E0,8.968655834E0,-2.220708185E0,6.010715497E-1
5.240744792E0,1.296257076E1,-7.285047443E-1,4.228708114E0
5.260595792E0,1.075738459E1,-4.995693238E0,7.962286870E0
5.280445792E0,8.480366549E0,-7.498181670E0,1.556568100E1
5.300296792E0,9.261741087E-1,-8.430949391E0,2.022536691E1
5.320147792E0,-8.822283069E0,-5.710591950E0,2.201079550E1
5.339997792E0,-1.236152377E1,-4.360653166E0,2.257968515E1
5.359848792E0,-1.185744934E1,-2.140494912E0,2.100455986E1
5.379699792E0,-9.641938158E0,-7.094496918E-1,1.694703190E1
5.399549792E0,-7.142055831E0,-5.173736277E-1,1.128556358E1
5.419400792E0,-3.945876246E0,1.204576126E-1,5.033649269E0
5.439250792E0,-1.230766097E0,-3.596886934E-1,-7.950079054E-1
5.459101792E0,2.364809014E0,-1.085028486E0,-4.971324382E0
5.478952792E0,4.849413152E0,-2.485424502E0,-7.935442303E0
5.498802792E0,7.016947635E0,-4.267302076E0,-1.018497843E1
5.518653792E0,9.299398910E0,-5.598416042E0,-1.160161143E1
5.538504792E0,1.027052437E1,-5.798051094E0,-1.199270713E1
5.558354792E0,9.884481833E0,-5.090733297E0,-1.149133295E1
5.578205792E0,9.615259067E0,-2.404517164E0,-1.029420559E1
5.598056792E0,8.366518922E0,2.067712280E0,-8.263552963E0
5.617906792E0,4.562276564E0,7.877207544E0,-5.809648461E0
5.637757792E0,-7.149700481E-1,1.075669930E1,-3.817957002E0
5.657607792E0,-4.991223042E0,1.270625221E1,-1.877262911E0
5.677458792E0,-6.853987489E0,1.480782572E1,-6.317244083E-2
5.697309042E0,-5.120695599E0,1.542467422E1,9.357939479E-1
5.717159042E0,-2.151600528E0,1.392078205E1,8.441142842E-1
5.737010042E0,8.129617810E-1,1.048288471E1,-8.939691067E-2
5.756861042E0,2.904360546E0,6.597022827E0,-1.230119395E0
5.776711042E0,4.386420969E0,3.215968609E0,-2.323850731E0
5.796562042E0,5.198761191E0,5.598258752E-1,-3.378035885E0
5.816413042E0,5.639926010E0,-1.821231675E0,-4.410253927E0
5.836263042E0,5.544884782E0,-4.014878946E0,-5.306604897E0
5.856114042E0,4.646080613E0,-6.262566769E0,-5.583919625E0
5.875965042E0,3.665161071E0,-8.202715607E0,-5.346616809E0
5.895815042E0,2.459316684E0,-9.349466279E0,-4.882243221E0
5.915666042E0,1.009959739E0,-1.004299049E1,-3.880812231E0
5.935516042E0,-1.052950222E0,-9.697349882E0,-2.239605802E0
5.955367042E0,-2.323111058E0,-8.406817347E0,-4.345481104E-1
5.975218042E0,-3.360584870E0,-6.542282948E0,1.321241234E0
5.995068042E0,-3.914514998E0,-4.363656589E0,3.003100723E0
6.014919042E0,-5.294761362E0,-2.095155017E0,4.962838318E0
6.034770042E0,-7.789720919E0,4.267549413E-1,6.778290020E0
6.054620042E0,-1.009094000E1,2.144620122E0,7.695459124E0
6.074471042E0,-1.253669816E1,3.080555280E0,7.449654458E0
6.094322042E0,-1.342626548E1,3.950392928E0,6.345221840E0
6.114172042E0,-1.260350962E1,3.483207999E0,4.772391289E0
6.134023042E0,-1.056178119E1,2.365582309E0,3.038766984E0
6.153874042E0,-7.562244349E0,1.130686031E0,1.106058143E0
6.173724042E0,-4.243201607E0,-3.372954655E-1,-5.440825394E-1
6.193575042E0,-8.882797658E-1,-2.099755021E0,-1.888917874E0
6.213426042E0,2.024383827E0,-3.689664413E0,-2.841693013E0
6.233276042E0,4.467638794E0,-4.880939292E0,-3.402583081E0
6.253127042E0,5.995974081E0,-5.837798127E0,-3.776083044E0
6.272977042E0,6.626720835E0,-6.827265129E0,-4.008464550E0
6.292828042E0,6.658688732E0,-7.707685652E0,-4.225284569E0
6.312679042E0,6.245722695E0,-7.638932921E0,-4.398014828E0
6.332529042E0,5.670903974E0,-6.718335010E0,-4.231798660E0
6.352380042E0,5.273756409E0,-4.911007429E0,-3.615072360E0
6.372231042E0,4.401083447E0,-2.651446835E0,-2.338395387E0
6.392081042E0,2.613280304E0,1.324096137E-1,-4.787948683E-1
6.411932042E0,-4.791717213E-1,2.927758765E0,1.549720309E0
6.431783042E0,-3.752534260E0,5.925108166E0,2.658659375E0
6.451633042E0,-6.034602542E0,8.955245830E0,2.837892030E0
6.471484042E0,-7.017630590E0,1.134371063E1,2.348048263E0
6.491335042E0,-6.472237397E0,1.091063076E1,1.286046405E0
6.511185042E0,-5.125839980E0,9.187970860E0,1.196803714E-1
6.531036042E0,-3.119405351E0,7.190236303E0,-7.546580243E-1
6.550887042E0,-6.657698214E-1,5.014305511E0,-1.417075637E0
6.570737042E0,1.965111771E0,2.726368963E0,-2.086892463E0
6.590588042E0,3.889004765E0,8.149036413E-1,-2.685160126E0
6.610439042E0,5.022262402E0,-1.106448153E0,-3.004508733E0
6.630289042E0,5.431727126E0,-2.925271359E0,-3.202500425E0
6.650140042E0,5.891101345E0,-3.836499692E0,-3.331780316E0
6.669991042E0,6.407532694E0,-4.396784574E0,-3.510277684E0
6.689841042E0,6.343270040E0,-4.698234268E0,-3.413713256E0
6.709692125E0,5.549713998E0,-5.255876793E0,-3.284345364E0
6.729543125E0,5.135225345E0,-5.610965336E0,-3.438967965E0
6.749393125E0,2.788924815E0,-6.340275680E0,-4.492965424E0
6.769244125E0,-1.075981820E0,-6.504153839E0,-5.752501284E0
6.789095125E0,-6.063633383E0,-4.927878985E0,-7.461410869E0
