"Time (s)","X (m/s^2)","Y (m/s^2)","Z (m/s^2)"
2.311166667E-3,7.045249329E0,6.328839111E0,3.767665100E0
2.216016667E-2,5.057083740E0,4.766687622E0,3.513942719E0
4.201016667E-2,3.369343414E0,3.531156921E0,3.566034393E0
6.185916667E-2,1.976639557E0,3.030897217E0,3.437152405E0
8.170916666E-2,1.450334015E0,2.104623413E0,3.272494812E0
1.015581667E-1,1.266665955E0,1.561702423E0,3.160677338E0
1.214081667E-1,1.216071167E0,1.655706940E0,3.290158081E0
1.412571667E-1,1.931583252E0,1.532513123E0,3.861519928E0
1.611061667E-1,2.819536743E0,1.682950287E0,4.134252777E0
1.809561667E-1,4.315076752E0,1.957928467E0,4.744683380E0
2.008051667E-1,5.541925507E0,2.964285736E0,5.309009857E0
2.206551667E-1,6.613247681E0,4.017495575E0,5.631738739E0
2.405041667E-1,7.916886749E0,4.762646027E0,5.904920654E0
2.603541667E-1,9.639654236E0,5.518574066E0,6.117478638E0
2.802031667E-1,1.158126663E1,6.413263550E0,5.879772949E0
3.000531667E-1,1.315344727E1,7.880213013E0,5.034031677E0
3.199021667E-1,1.424976746E1,8.853638763E0,3.968247986E0
3.397511667E-1,1.524834091E1,9.136101379E0,2.815046082E0
3.596011667E-1,1.559816345E1,8.619824982E0,2.140698395E0
3.794501667E-1,1.447070801E1,8.265661469E0,2.176623688E0
3.993001667E-1,1.280287628E1,7.326215057E0,1.932930450E0
4.191491667E-1,1.123773102E1,6.078559570E0,1.774859161E0
4.389991667E-1,9.573791199E0,4.698279877E0,1.343755646E0
4.588481667E-1,7.522606659E0,3.164868622E0,9.753717041E-1
4.786981667E-1,5.724695435E0,1.953138428E0,8.484356689E-1
4.985471667E-1,4.807552643E0,9.620494080E-1,9.083111572E-1
5.183971667E-1,4.448599091E0,2.758763123E-1,1.500779114E0
5.382461667E-1,3.982468414E0,-5.619314575E-1,1.886826324E0
5.580955000E-1,4.075425110E0,-1.196012878E0,2.237546997E0
5.779445000E-1,5.118456116E0,-1.040635986E0,2.605930939E0
5.977935000E-1,6.203250275E0,2.290237427E-1,3.681294708E0
6.176435000E-1,7.402256927E0,2.795736237E0,4.921316071E0
6.374925000E-1,8.650511169E0,5.717360687E0,6.449488220E0
6.573425000E-1,1.025861710E1,7.932005310E0,7.218139801E0
6.771915000E-1,1.052985306E1,9.254954224E0,7.692802734E0
6.970415000E-1,9.707912292E0,9.286538544E0,6.801855469E0
7.168905000E-1,9.142687683E0,8.750353546E0,6.078409882E0
7.367405000E-1,8.475225677E0,7.500752106E0,5.020559692E0
7.565895000E-1,7.763455811E0,5.777385864E0,4.148772583E0
7.764385000E-1,6.928941193E0,4.301754456E0,4.245770874E0
7.962885000E-1,6.908583527E0,2.740351410E0,3.987258453E0
8.161375000E-1,5.651048584E0,2.235451355E0,4.220174103E0
8.359875000E-1,3.625460815E0,1.833237762E0,3.834575958E0
8.558365000E-1,2.390379181E0,1.710343323E0,3.369343414E0
8.756865000E-1,2.101030884E0,1.118623810E0,3.691922607E0
8.955355000E-1,2.096839600E0,1.035247192E0,4.281995544E0
9.153855000E-1,2.240091705E0,6.670129395E-1,4.960684204E0
9.352345000E-1,2.060016174E0,3.632945251E-1,5.533243561E0
9.550845000E-1,1.992207184E0,-4.894821167E-2,6.575975189E0
9.749335000E-1,1.241069183E0,-7.526348877E-1,7.204218750E0
9.947825000E-1,1.904639282E0,-2.449206848E0,8.212671661E0
1.014632500E0,2.729274445E0,-4.110751648E0,9.201365662E0
1.034481500E0,2.599644012E0,-5.078788605E0,1.021670425E1
1.054331500E0,4.053570557E0,-6.965764618E0,1.147064667E1
1.074180500E0,4.920567627E0,-7.760611725E0,1.250993546E1
1.094030500E0,7.094496918E0,-8.208330688E0,1.329340622E1
1.113879500E0,1.082279388E1,-6.450086975E0,1.498698441E1
1.133729500E0,1.676169388E1,-3.127296753E0,1.714145416E1
1.153578500E0,2.367506744E1,1.708097992E0,1.962239502E1
1.173428500E0,3.286026672E1,6.698121185E0,2.157358749E1
1.193277500E0,4.101306290E1,1.270647675E1,2.103021744E1
1.213126500E0,5.099685150E1,1.851335129E1,1.665990555E1
1.232976500E0,6.191769150E1,2.169318878E1,8.473130035E0
1.252825500E0,6.786946472E1,2.009870453E1,-5.060676270E0
1.272675500E0,7.125183105E1,1.351988525E1,-1.910551987E1
1.292524500E0,6.832017746E1,1.270707550E0,-3.055042007E1
1.312374500E0,6.544959686E1,-1.667337753E1,-3.969610153E1
1.332223500E0,6.247707825E1,-3.636462936E1,-4.318818970E1
1.352073500E0,6.002667389E1,-5.781891495E1,-3.544119965E1
1.371922500E0,3.534480011E1,-7.866441650E1,-2.975227982E1
1.391772500E0,2.429447937E-1,-7.833884354E1,-1.803719147E1
1.411621500E0,-2.275298492E1,-7.288747971E1,-8.277486877E0
1.431470500E0,-3.579177063E1,-5.603417633E1,-3.356470184E0
1.451320500E0,-3.233785309E1,-3.807093109E1,3.794459381E0
1.471169500E0,-2.263847305E1,-2.633024597E1,1.119985977E1
1.491019500E0,-8.065527649E0,-1.536569687E1,1.660631699E1
1.510868500E0,5.755531311E0,-4.418361969E0,2.087484055E1
1.530718500E0,1.889685379E1,1.934876404E0,2.342329102E1
1.550568292E0,2.718062759E1,8.473279724E0,2.443578552E1
1.570418292E0,2.982263351E1,1.012015503E1,2.283576279E1
1.590267292E0,2.799792801E1,9.960736542E0,1.924862228E1
1.610116292E0,2.302781342E1,7.029082947E0,1.446606766E1
1.629966292E0,1.725431946E1,4.332290955E0,1.020697449E1
1.649815292E0,1.213556396E1,-6.629713440E-1,8.102650452E0
1.669665292E0,6.197711792E0,-5.862558746E0,6.487808533E0
1.689514292E0,6.623725891E-1,-1.201940552E1,4.149970093E0
1.709364292E0,-3.035687256E-1,-1.643088181E1,1.112187195E-1
1.729213292E0,7.982899475E-1,-1.633822449E1,-2.863096161E0
1.749063292E0,-7.044351196E-1,-1.354428452E1,-6.091133423E0
1.768912292E0,6.224057007E-1,-6.376440125E0,-7.016209717E0
1.788761292E0,5.484594727E-1,2.498005371E0,-3.484903107E0
1.808611292E0,9.448352051E-1,1.060379929E1,6.885681152E-1
1.828460292E0,-5.497767334E0,2.284040314E1,5.849236450E0
1.848310292E0,-4.648134155E0,2.203837097E1,8.064928894E0
1.868159292E0,1.659299469E0,1.794288757E1,8.980724487E0
1.888009292E0,9.609566803E0,1.464778976E1,7.687413940E0
1.907858292E0,1.484597763E1,1.055814423E1,4.724026337E0
1.927708292E0,1.475796066E1,7.664661255E0,3.030148773E0
1.947557292E0,1.356703720E1,5.459596710E0,3.324736176E0
1.967407292E0,1.193258606E1,3.764671326E0,3.439697113E0
1.987256292E0,8.250093842E0,3.213667145E0,3.252436523E0
2.007106292E0,4.622836761E0,2.374063110E0,2.176773376E0
2.026955292E0,2.180365906E0,2.307301941E0,1.713337097E0
2.046804292E0,1.324445801E0,2.305206299E0,1.595831451E0
2.066654292E0,1.772314453E0,2.193987579E0,2.291584625E0
2.086503292E0,3.451522522E0,1.512754211E0,3.971990204E0
2.106353292E0,5.040617981E0,2.698887634E-1,5.222789154E0
2.126202292E0,5.233267365E0,-2.140548706E-2,5.658083954E0
2.146052292E0,6.741979980E0,1.513352966E-1,6.230343933E0
2.165901292E0,8.168363800E0,-4.638853455E-1,5.947731628E0
2.185751292E0,1.036010605E1,-1.356628876E0,6.420598297E0
2.205600292E0,1.319311478E1,-1.976489868E0,7.755222931E0
2.225450292E0,1.616353775E1,-1.553020477E0,9.225166168E0
2.245299292E0,1.824211533E1,3.451821899E-1,9.996661835E0
2.265148292E0,2.078712296E1,3.463048553E0,9.315428467E0
2.284998292E0,2.730516861E1,9.951605530E0,9.781708832E0
2.304847292E0,3.902998672E1,2.060390396E1,8.221353607E0
2.324697292E0,4.981805283E1,3.284320221E1,5.746100922E0
2.344546292E0,5.699877045E1,4.223212784E1,-1.507814484E0
2.364396292E0,6.423861511E1,3.951587631E1,-1.357317444E1
2.384245292E0,7.560028839E1,2.464729568E1,-3.166260727E1
2.404095292E0,7.855544312E1,1.425785065E0,-4.869763275E1
2.423944292E0,7.857385483E1,-2.117706207E1,-5.745337509E1
2.443793292E0,7.024712036E1,-4.327261414E1,-5.665837830E1
2.463643292E0,6.180422745E1,-6.690966064E1,-4.405249237E1
2.483492292E0,5.077546188E1,-7.854017487E1,-3.336307114E1
2.503342292E0,1.247191452E1,-7.833689758E1,-1.909384415E1
2.523191292E0,-1.277712982E1,-7.704643112E1,-2.224673767E0
2.543041292E0,-2.793445999E1,-5.917419662E1,4.630919952E0
2.562889917E0,-2.895309174E1,-4.106844772E1,1.047850983E1
2.582739917E0,-2.320175171E1,-2.579480942E1,1.352078339E1
2.602588917E0,-1.241248810E1,-1.626263168E1,1.416249893E1
2.622438917E0,5.083428955E-1,-1.079869400E1,1.468311630E1
2.642287917E0,1.234842133E1,-4.555776215E0,1.452744003E1
2.662136917E0,1.812356186E1,1.089733887E0,1.414947601E1
2.681986917E0,2.290671524E1,3.087928619E0,1.278925461E1
2.701835917E0,2.402099808E1,6.112838287E0,1.216535202E1
2.721685917E0,2.006487488E1,7.958949280E0,1.233015930E1
2.741534917E0,1.929757050E1,6.447841644E0,1.208496918E1
2.761384917E0,1.817490509E1,6.572682037E0,1.253508316E1
2.781233917E0,1.739308090E1,4.740791473E0,1.161330002E1
2.801083917E0,1.349219284E1,4.004772034E0,1.012180161E1
2.820932917E0,1.001552261E1,2.802172852E0,8.632249146E0
2.840781917E0,7.512876892E0,1.309027863E0,7.151827698E0
2.860631917E0,5.456453247E0,-4.090992737E-1,5.674549713E0
2.880480917E0,4.397405548E0,-2.668800201E0,3.536096649E0
2.900330917E0,3.525019684E0,-4.538112946E0,1.265468445E0
2.920179917E0,3.708687744E0,-5.077591095E0,-7.798782349E-1
2.940029917E0,4.134701843E0,-5.614674225E0,-1.570683746E0
2.959878917E0,3.527265015E0,-4.645140381E0,-1.192120972E0
2.979728917E0,2.535577240E0,-1.021326141E0,-6.057902527E-1
2.999577917E0,3.890409851E0,4.601131897E0,-7.544311523E-2
3.019427917E0,3.493285675E0,1.344459183E1,2.662363586E0
3.039276917E0,4.336931305E0,1.774425064E1,4.796176300E0
3.059126917E0,8.664881287E0,2.029674271E1,6.861581268E0
3.078975917E0,1.028391449E1,1.839839035E1,5.722450104E0
3.098824917E0,1.120285355E1,1.478819778E1,2.967129822E0
3.118674917E0,1.122036713E1,1.052970337E1,6.391708374E-2
3.138523917E0,1.025412643E1,7.135511627E0,-1.175655212E0
3.158373917E0,8.621621246E0,3.568130035E0,-2.487826538E-1
3.178222917E0,7.288194122E0,2.880010986E-1,1.988315277E0
3.198072917E0,5.824986877E0,-2.002535706E0,3.530109100E0
3.217921917E0,3.585344238E0,-2.765349426E0,3.847149811E0
3.237771917E0,9.157955933E-1,-2.704426117E0,3.811074829E0
3.257620917E0,-7.300318909E-1,-1.890269165E0,4.051175537E0
3.277470917E0,-1.531914368E0,-1.393152924E0,3.960314484E0
3.297319917E0,-1.425934753E0,-5.993536377E-1,4.158053284E0
3.317169917E0,5.643264771E-1,-2.942880249E-1,4.872517548E0
3.337018917E0,4.565655670E0,-1.076112213E0,5.803282013E0
3.356867917E0,8.692573700E0,-1.483714600E0,7.050488434E0
3.376717917E0,1.150432663E1,-1.976340179E0,8.136929169E0
3.396566917E0,1.313428711E1,-3.343596954E0,9.092841339E0
3.416416917E0,1.506407410E1,-3.699706421E0,1.066831512E1
3.436265917E0,1.802776108E1,-3.210823059E0,1.207344315E1
3.456115917E0,2.160187866E1,-1.431772614E0,1.262429764E1
3.475964917E0,2.809462692E1,3.568728790E0,1.456725723E1
3.495814917E0,3.709166748E1,9.877659302E0,1.633523071E1
3.515663917E0,5.160159393E1,1.930340836E1,1.433673660E1
3.535513917E0,5.589077454E1,2.617846161E1,7.378606110E0
3.555362500E0,6.166666351E1,2.737432480E1,-6.223907318E0
3.575211500E0,7.492085129E1,2.028416885E1,-2.220587265E1
3.595061500E0,7.854002518E1,5.431155853E0,-3.956766861E1
3.614910500E0,7.665798889E1,-1.158306290E1,-5.179109985E1
3.634760500E0,6.582037582E1,-2.989193939E1,-5.362523575E1
3.654609500E0,5.765425735E1,-5.437712219E1,-4.108042282E1
3.674459500E0,3.932726852E1,-7.891589355E1,-3.333852219E1
3.694308500E0,7.702233124E0,-7.834183731E1,-1.845736771E1
3.714158500E0,-1.611503860E1,-7.358817261E1,-1.206670715E1
3.734007500E0,-2.901641006E1,-5.317377457E1,-6.199058990E0
3.753857500E0,-2.801424408E1,-3.392739761E1,-5.189707947E-1
3.773706500E0,-1.790187286E1,-2.836795853E1,4.562811584E0
3.793555500E0,-5.766757965E0,-1.817221069E1,1.084494781E1
3.813405500E0,1.480870514E0,-1.047371979E1,1.352078339E1
3.833254500E0,7.648644562E0,-4.919370117E0,1.427222076E1
3.853104500E0,1.301513489E1,-1.904639282E0,1.392629013E1
3.872953500E0,1.703547455E1,8.482859802E-1,1.254002289E1
3.892803500E0,2.025078827E1,2.535577240E0,1.113474518E1
3.912652500E0,2.168989563E1,4.999303894E0,1.120689514E1
3.932502500E0,2.173884384E1,4.190984802E0,1.244212646E1
3.952351500E0,2.117526581E1,4.092639313E0,1.425650345E1
3.972201500E0,1.834001175E1,4.379442902E0,1.631696869E1
3.992050500E0,1.850901031E1,2.054028625E0,1.623164612E1
4.011899500E0,1.635708527E1,1.941313019E0,1.459869186E1
4.031749500E0,1.472981918E1,1.211730194E0,1.204904388E1
4.051598500E0,1.298489777E1,-3.638932800E-1,9.826016693E0
4.071448500E0,1.118189713E1,-3.812272339E0,7.236850891E0
4.091297500E0,6.568790131E0,-7.268734589E0,3.962110748E0
4.111147500E0,2.265389099E0,-7.681875458E0,-3.667373657E-2
4.130996500E0,-1.965562592E0,-5.374872894E0,-3.257525940E0
4.150846500E0,-5.633535004E0,-1.740430756E0,-2.144590302E0
4.170695500E0,-6.989265747E0,2.165995789E-1,-3.297642517E-1
4.190545500E0,-6.411467285E0,3.772904205E0,1.713935852E0
4.210394500E0,-4.509971466E0,8.025560760E0,3.226839752E0
4.230244500E0,-1.860181732E0,8.618777161E0,3.394940186E0
4.250093500E0,1.379531250E0,6.311325531E0,2.579436035E0
4.269942500E0,4.796026611E0,3.524271240E0,1.039139099E0
4.289792500E0,8.082442474E0,1.123264160E0,2.005828857E-1
4.309641500E0,1.025966492E1,-1.284927979E0,1.258882141E-1
4.329491500E0,1.184516785E1,-1.527872772E0,2.643053741E0
4.349340500E0,1.183932999E1,-1.720222778E0,5.740263062E0
4.369190500E0,9.953252106E0,-1.677112427E0,7.160210266E0
4.389039500E0,8.172106018E0,-1.909429321E0,6.523733826E0
4.408889500E0,8.402626648E0,-1.977687378E0,5.872438202E0
4.428738500E0,1.028586044E1,-2.195484467E0,5.810317383E0
4.448588500E0,1.416848648E1,-2.502795410E0,5.401218109E0
4.468437500E0,2.122451340E1,-8.610095215E-1,4.303401031E0
4.488287500E0,2.882196442E1,2.327958984E0,1.675316162E0
4.508136500E0,3.361993698E1,8.283923492E0,5.489085388E-1
4.527985500E0,3.895110077E1,1.269510040E1,-2.571652222E-1
4.547835500E0,4.430561600E1,1.911030991E1,-2.290686493E0
4.567685000E0,4.351735519E1,2.612217865E1,-4.098776550E0
4.587535000E0,4.631937836E1,3.292747696E1,-8.479566650E0
4.607384000E0,4.975638107E1,3.190315704E1,-1.690988571E1
4.627234000E0,5.691045410E1,2.438713669E1,-2.793191528E1
4.647083000E0,7.005072876E1,7.153773651E0,-4.117023605E1
4.666933000E0,7.670738617E1,-1.566477493E1,-5.275120331E1
4.686782000E0,6.688615952E1,-3.250026535E1,-5.721821411E1
4.706632000E0,5.691883667E1,-5.319188690E1,-4.839032181E1
4.726481000E0,3.487208313E1,-7.849137634E1,-3.657045135E1
4.746331000E0,9.264234924E0,-7.828660217E1,-1.850960907E1
4.766180000E0,-1.414797913E1,-6.836628159E1,-6.323600006E0
4.786029000E0,-2.139979889E1,-4.742258423E1,4.830455017E-1
4.805879000E0,-1.675361069E1,-3.554807739E1,3.611689453E0
4.825728000E0,-7.843688965E0,-2.708871872E1,8.766819305E0
4.845578000E0,-1.641336823E0,-2.043834824E1,1.290092239E1
4.865427000E0,1.198707275E0,-1.236653366E1,1.591550354E1
4.885277000E0,2.763253784E0,-7.286098480E0,1.729383728E1
4.905126000E0,5.161267090E0,-3.651207275E0,1.735505997E1
4.924976000E0,8.569679260E0,-2.094893646E0,1.675256287E1
4.944825000E0,1.510928009E1,-9.589059448E-1,1.609198654E1
4.964675000E0,1.886931107E1,1.646725616E0,1.525208313E1
4.984524000E0,2.139500885E1,4.976700897E0,1.523636581E1
5.004374000E0,2.155068512E1,6.346951447E0,1.494417343E1
5.024223000E0,2.380499725E1,6.993157654E0,1.382345398E1
5.044072000E0,2.396666107E1,6.219716034E0,1.180684753E1
5.063922000E0,2.078981735E1,5.040917358E0,9.113348694E0
5.083771000E0,1.759516068E1,2.756068726E0,6.184688873E0
5.103621000E0,1.244661713E1,1.349892883E0,3.824995880E0
5.123470000E0,8.520731049E0,-1.529968414E0,1.857786713E0
5.143320000E0,5.071753235E0,-5.756279755E0,-1.963916016E-1
5.163169000E0,1.569186859E0,-9.702822876E0,-3.796255646E0
5.183019000E0,-1.742376709E0,-1.110016708E1,-6.738237762E0
5.202868000E0,-3.882775726E0,-7.015760651E0,-6.996750183E0
5.222718000E0,-5.247038727E0,-2.614612885E0,-4.986430664E0
5.242567000E0,-5.401966553E0,3.479664001E0,-2.030377808E0
5.262417000E0,-3.899989929E0,1.118399277E1,1.163231049E0
5.282266000E0,-2.499502258E0,1.312814987E1,2.967728577E0
5.302116000E0,-2.700384521E-1,1.293789551E1,3.716022491E0
5.321965000E0,2.421664124E0,1.264734970E1,4.000880127E0
5.341814000E0,6.942712555E0,1.018661682E1,3.463497620E0
5.361664000E0,1.053239777E1,7.480394440E0,3.250789948E0
5.381513000E0,1.177720917E1,4.637955322E0,3.178490295E0
5.401363000E0,1.197569641E1,2.040406952E0,5.270839233E0
5.421212000E0,1.180579971E1,9.340576172E-2,6.743177490E0
5.441062000E0,1.099927689E1,-9.123527527E-1,6.976991272E0
5.460911000E0,8.776399384E0,-6.379733276E-1,6.515800323E0
5.480761000E0,7.612270203E0,-6.456074524E-1,6.662944336E0
5.500610000E0,8.158783722E0,-8.161029053E-1,6.904841309E0
5.520460000E0,8.956025848E0,-3.053649902E-2,7.131919098E0
5.540309000E0,1.145178589E1,2.359094238E-1,7.528743896E0
5.560158500E0,1.489941650E1,2.030677185E0,7.818990326E0
5.580007500E0,1.970068222E1,6.609355774E0,8.901539154E0
5.599857500E0,2.668021820E1,1.344563965E1,9.267528076E0
5.619706500E0,3.487417877E1,2.356699219E1,9.718240814E0
5.639555500E0,4.250171722E1,3.327819763E1,6.534661102E0
5.659405500E0,4.679733444E1,3.776990707E1,-4.867877197E-1
5.679254500E0,5.108322189E1,3.718028320E1,-1.224932739E1
5.699104500E0,5.638699265E1,2.944332230E1,-2.794418976E1
5.718953500E0,7.105558914E1,1.487037689E1,-4.746120392E1
5.738803500E0,7.279257706E1,-4.764292603E0,-5.946998154E1
5.758652500E0,6.461972260E1,-2.567251373E1,-5.618895447E1
5.778502500E0,5.589436707E1,-5.212176224E1,-3.846296585E1
5.798351500E0,3.290367645E1,-7.492309662E1,-2.134231842E1
5.818201500E0,3.059038696E0,-7.219427124E1,-6.547085266E0
5.838050500E0,-7.402556305E0,-6.224700668E1,-2.096390533E0
5.857900500E0,-9.679770813E0,-4.666441086E1,-7.655081177E-1
5.877749500E0,-8.342900848E0,-3.402559341E1,5.470074921E0
5.897598500E0,-6.273603973E0,-2.713422409E1,1.108100693E1
5.917448500E0,-4.529281311E0,-1.718157074E1,1.467682938E1
5.937297500E0,-3.647465057E0,-1.136481674E1,1.584814362E1
5.957147500E0,-4.462220764E-1,-6.271358643E0,1.639510620E1
5.976996500E0,3.643573151E0,-2.738854523E0,1.583422256E1
5.996846500E0,1.058194473E1,9.514215088E-1,1.555969345E1
6.016695500E0,2.055809921E1,3.961811371E0,1.641202103E1
6.036545500E0,2.799253922E1,5.632487183E0,1.680764832E1
6.056394500E0,2.807816116E1,7.376061401E0,1.590143280E1
6.076244500E0,2.238654694E1,8.336763611E0,1.403960449E1
6.096093500E0,1.549218384E1,6.832841034E0,1.227911545E1
6.115943500E0,1.516870651E1,2.433489532E0,9.586514740E0
6.135792500E0,1.218990097E1,-1.198108521E0,6.286776581E0
6.155642500E0,7.250622253E0,-4.371210022E0,2.045795746E0
6.175491500E0,8.189469910E-1,-6.807244263E0,-4.578379211E0
6.195340500E0,-3.689527588E0,-3.921844482E0,-8.255632324E0
6.215190500E0,-5.451962585E0,-1.959724731E0,-8.433761902E0
6.235039500E0,-4.540957031E0,1.124761047E0,-5.423970795E0
6.254889500E0,-3.191812592E0,4.553381195E0,-2.108365631E0
6.274738500E0,-1.654958496E0,5.976920929E0,-7.229965210E-2
6.294588500E0,2.740800476E-1,6.018085327E0,5.465135193E-1
6.314437500E0,2.043999481E0,5.420378265E0,-2.847079468E-1
6.334287500E0,5.013823700E0,4.173770599E0,-6.188131714E-1
6.354136500E0,7.940238190E0,3.354973297E0,-6.999444580E-1
6.373986500E0,1.125644211E1,2.139201508E0,2.219883728E-1
6.393835500E0,1.347692459E1,1.728305969E0,1.761237488E0
6.413685500E0,1.374456802E1,1.189576263E0,3.518583069E0
6.433534500E0,1.202195023E1,1.276395721E0,3.627406769E0
6.453384500E0,9.447453918E0,6.011499023E-1,2.503543854E0
6.473233500E0,9.072932739E0,6.450086975E-1,2.050735474E0
6.493083500E0,1.100062408E1,6.316864014E-2,2.140698395E0
6.512932500E0,1.362167358E1,-9.864486694E-1,2.362836456E0
6.532782500E0,1.655706940E1,-2.356250153E0,2.718796234E0
6.552631500E0,2.023971130E1,-3.086731110E0,2.820883942E0
6.572481500E0,2.522120224E1,-1.938768311E0,6.255491638E-1
6.592330500E0,3.078438354E1,3.769461365E0,-7.240443420E-1
6.612179500E0,4.108685944E1,1.134565659E1,-1.811083832E0
6.632029500E0,5.212984543E1,2.249611908E1,-4.477039948E0
6.651878500E0,5.980438614E1,3.346171600E1,-1.179621964E1
6.671728500E0,6.273708755E1,3.543251770E1,-2.935934692E1
6.691577500E0,6.948864761E1,2.930216583E1,-4.997597443E1
6.711427500E0,7.486636459E1,1.005908203E1,-6.653783386E1
6.731276500E0,7.106382202E1,-1.529339722E1,-7.453555252E1
6.751126500E0,6.210525146E1,-3.923625778E1,-7.289002441E1
6.770975500E0,5.870836533E1,-6.425852371E1,-5.670118927E1
6.790825500E0,4.210204834E1,-7.855634125E1,-3.616464523E1
6.810674500E0,1.432850372E1,-7.834782486E1,-1.698966980E1
6.830524500E0,-1.535417084E1,-7.817418594E1,-6.975494385E-2
6.850373500E0,-3.331801483E1,-5.447486893E1,1.613794098E0
6.870223500E0,-2.736249939E1,-3.616614212E1,5.895340576E0
6.890072500E0,-1.770608002E1,-2.751383469E1,1.109268265E1
